KEY,EMG,IMU
<<<<<<< Updated upstream
3000,420,19.58
3000,399,5.32
3000,397,19.91
3000,448,19.58
3000,249,19.58
3000,304,19.58
3000,407,21.89
3000,438,5.32
3000,194,27.76
3000,420,19.93
3000,447,19.93
3000,442,19.58
3004,424,5.32
3009,414,19.93
3010,423,26.56
3012,214,19.93
3016,441,19.5
3017,414,19.58
3018,425,19.32
3019,425,2.01
3020,405,19.93
3021,400,26.64
3022,405,19.58
3023,400,5.32
3024,281,19.94
3025,261,14.9
3026,417,5.48
3027,235,19.58
3028,430,19.58
3029,272,24.98
3030,254,19.93
3031,242,19.93
3032,421,5.32
3033,420,19.58
3034,431,5.32
3035,429,19.58
3036,445,5.32
3037,438,24.98
3038,431,19.91
3039,434,19.91
3040,423,19.5
3041,441,19.91
3042,442,19.58
3043,399,24.99
3044,444,19.58
3045,444,5.32
3046,446,5.32
3047,408,5.32
3048,403,27.76
3049,448,19.58
3050,424,24.99
3051,260,0.0
3052,400,4.9
3053,404,5.32
3054,445,19.58
3055,286,24.98
3056,436,19.58
3057,437,24.98
3058,445,19.33
3059,419,27.76
3060,422,5.32
3061,425,5.32
3062,204,19.58
3063,442,5.32
3064,444,19.58
3065,181,24.27
3066,425,19.58
3067,421,9.33
3068,424,19.91
3069,432,5.32
3070,436,19.93
3071,431,19.58
3072,399,19.93
3073,420,17.7
3074,232,5.32
3075,423,5.99
3076,399,19.32
3077,395,19.93
3078,422,5.99
3079,423,19.58
3080,447,19.93
3081,447,4.9
3082,442,19.3
3083,198,19.58
3084,423,24.98
3085,419,26.64
3086,421,21.83
3087,421,19.93
3088,447,27.76
3089,448,19.58
3090,419,18.37
3091,406,19.91
3092,323,5.32
3093,248,12.05
3094,424,19.58
3095,241,5.32
3096,442,5.32
3097,442,26.54
3098,401,24.98
3099,405,5.32
3100,438,10.4
3101,442,0.0
3102,450,19.94
3103,271,5.32
3104,328,5.32
3105,283,19.91
3106,236,24.98
3107,447,5.32
3108,431,5.32
3109,418,21.97
3110,208,5.32
3111,255,19.92
3112,444,5.32
3113,447,26.54
3114,445,2.45
3115,448,17.71
3116,441,24.98
3117,443,18.26
3118,399,5.32
3119,400,19.58
3120,422,19.58
3121,211,19.58
3122,428,19.93
3123,442,19.3
3124,204,19.58
3125,452,19.92
3126,420,19.91
3127,197,27.29
3128,437,19.58
3129,432,19.58
3130,293,26.52
3131,258,19.58
3132,405,5.32
3133,421,19.93
3134,442,19.9
3135,420,19.93
3136,433,19.9
3137,442,19.91
3138,441,26.53
3139,434,5.32
3140,427,19.88
3141,398,6.89
3142,443,10.4
3143,428,5.32
3144,448,4.9
3145,447,5.69
3146,411,27.76
3147,427,5.32
3148,232,12.05
3149,448,19.32
3150,426,27.76
3151,260,19.58
3152,407,19.58
3153,398,19.58
3154,198,19.93
3155,419,19.48
3156,428,19.58
3157,420,19.58
3158,427,21.95
3159,429,14.7
3160,419,26.54
3161,421,19.58
3162,420,19.58
3163,447,19.33
3164,446,5.32
3165,421,19.58
3166,431,5.32
3167,443,5.48
3168,453,4.9
3169,450,19.32
3170,443,19.93
3171,357,19.93
3172,449,10.4
3173,444,5.48
3174,398,12.61
3175,398,24.98
3176,402,5.32
3177,401,5.32
3178,430,5.32
3179,431,19.92
3180,445,19.58
3181,420,19.29
3182,422,19.58
3183,448,19.32
3184,447,10.4
3185,421,19.58
3186,428,19.93
3187,442,4.9
3188,449,5.48
3189,448,26.64
3190,443,5.48
3191,444,19.58
3192,445,19.91
3193,409,19.58
3194,446,10.4
3195,446,27.78
3196,410,19.9
3197,400,18.37
3198,435,19.58
3199,422,4.9
3200,266,27.76
3201,254,5.32
3202,318,5.32
3203,400,7.3
3204,405,5.32
3205,419,19.93
3206,431,19.58
3207,430,19.91
3208,441,26.52
3209,446,5.32
3210,446,26.64
3211,438,19.9
3212,442,5.32
3213,443,19.93
3214,446,19.58
3215,441,19.58
3216,449,26.66
3217,446,5.32
3218,451,19.93
3219,442,19.93
3220,446,19.92
3221,439,5.32
3222,408,19.58
3223,397,19.31
3224,402,14.7
3225,400,19.58
3226,246,5.69
3227,418,19.58
3228,208,4.9
3229,417,12.04
3230,309,26.52
3231,260,5.32
3232,431,19.58
3233,447,19.93
3234,422,5.32
3235,421,14.9
3236,440,5.32
3237,434,5.32
3238,445,5.99
3239,444,19.58
3240,442,19.93
3241,446,19.5
3242,432,5.32
3243,471,19.58
3244,413,24.27
3245,430,5.32
3246,442,5.48
3247,446,19.58
3248,448,5.32
3249,424,19.58
3250,431,19.93
3251,422,5.32
3252,226,19.93
3253,253,19.92
3254,412,24.27
3255,414,15.84
3256,422,19.9
3257,430,5.32
3258,431,19.58
3259,450,19.58
3260,450,26.63
3261,443,5.32
3262,446,19.58
3263,421,5.32
3264,438,4.9
3265,442,19.58
3266,444,19.58
3267,444,26.66
3268,400,5.32
3269,399,10.68
3270,398,26.66
3271,400,14.41
3272,431,24.98
3273,433,5.48
3274,416,19.91
3275,411,19.88
3276,193,19.58
3277,251,2.45
3278,418,0.0
3279,196,14.41
3280,421,19.93
3281,432,12.05
3282,430,19.58
3283,424,19.58
3284,422,5.32
3285,421,18.2
3286,242,5.32
3287,445,19.58
3288,449,24.98
3289,442,19.58
3290,459,27.75
3291,447,5.32
3292,399,5.32
3293,445,19.91
3294,442,24.99
3295,445,19.93
3296,409,19.58
3297,418,19.58
3298,408,19.91
3299,411,5.48
3300,446,0.03
3301,449,19.58
3302,399,19.32
3303,396,5.48
3304,420,19.58
3305,419,19.58
3306,425,12.05
3307,233,0.22
3308,406,5.32
3309,257,5.32
3310,230,5.32
3311,401,19.33
3312,414,19.93
3313,437,19.58
3314,444,19.33
3315,444,24.26
3316,442,5.32
3317,417,19.91
3318,449,5.32
3319,446,5.32
3320,444,12.05
3321,435,19.94
3322,426,5.32
3323,420,19.58
3324,214,19.93
3325,208,19.58
3326,419,19.9
3327,425,5.32
3328,445,19.58
3329,222,19.58
3330,443,5.32
3331,451,5.32
3332,443,19.91
3333,446,19.58
3334,446,19.58
3335,459,5.32
3336,444,5.32
3337,422,19.58
3338,447,5.32
3339,448,19.58
3340,221,26.64
3341,395,15.84
3342,400,19.58
3343,401,19.58
3344,415,26.56
3345,446,19.93
3346,425,19.93
3347,274,19.93
3348,267,19.92
3349,381,19.93
3350,339,19.32
3351,436,5.32
3352,456,19.92
3353,440,19.91
3354,446,10.4
3355,448,5.32
3356,446,19.3
3357,429,19.93
3358,443,5.32
3359,446,5.32
3360,446,19.33
3361,445,5.32
3362,443,5.32
3363,425,27.76
3364,446,5.32
3365,447,5.32
3366,399,5.32
3367,410,19.93
3368,409,5.32
3369,432,24.99
3370,428,5.48
3371,432,19.93
3372,407,19.58
3373,424,19.58
3374,179,24.98
3375,445,2.45
3376,422,19.58
3377,423,18.2
3378,445,5.32
3379,229,19.58
3380,421,19.93
3381,421,19.3
3382,445,26.66
3383,423,5.32
3384,448,26.66
3385,447,19.3
3386,397,5.32
3387,447,5.32
3388,444,26.52
3389,432,19.92
3390,421,12.04
3391,400,26.56
3392,403,19.58
3393,412,18.37
3394,402,19.58
3395,240,19.58
3396,416,24.99
3397,314,19.58
3398,400,5.32
3399,420,19.93
3400,419,19.58
3401,420,5.32
3402,428,19.58
3403,439,26.66
3404,421,19.93
3405,445,22.86
3406,447,0.01
3407,440,5.32
3408,448,24.98
3409,447,19.58
3410,439,5.48
3411,445,19.32
3412,452,19.58
3413,440,24.99
3414,442,18.26
3415,447,19.58
3416,194,19.58
3417,401,19.32
3418,411,19.31
3419,417,19.58
3420,409,27.76
3421,425,5.32
3422,421,19.58
3423,420,19.92
3424,421,19.94
3425,269,5.32
3426,415,19.93
3427,277,26.64
3428,411,5.32
3429,417,5.32
3430,254,5.32
3431,434,19.93
3432,449,14.41
3433,445,10.4
3434,443,5.32
3435,447,19.58
3436,413,5.32
3437,445,5.32
3438,444,19.93
3439,445,14.7
3440,407,19.58
3441,400,19.58
3442,404,24.98
3443,414,18.26
3444,434,5.32
3445,438,5.32
3446,406,24.26
3447,407,19.93
3448,405,0.15
3448,422,19.58
3450,400,0.0
3451,241,5.32
3452,331,24.27
3453,297,5.32
3454,336,26.64
3455,310,19.58
3456,443,19.91
3457,446,12.04
3458,443,19.29
3459,447,27.76
3460,431,5.99
3461,432,5.32
3462,451,5.32
3463,450,19.58
3464,448,10.4
3465,445,27.76
3466,447,19.58
3467,436,5.32
3468,443,10.4
3469,442,19.93
3470,447,19.58
3471,427,19.93
3472,403,19.58
3473,432,19.48
3474,399,19.93
3475,400,19.58
3476,445,5.32
3477,406,27.72
3478,412,0.0
3479,433,14.7
3480,264,19.58
3481,225,0.21
3482,447,19.5
3483,420,19.91
3484,324,5.32
3485,448,5.32
3486,446,26.64
3487,399,19.58
3488,449,26.64
3489,447,19.93
3490,443,19.58
3491,452,26.58
3492,437,19.58
3493,421,10.4
3494,410,19.93
3495,431,12.04
3496,443,5.32
3497,447,5.32
3498,444,21.93
3499,442,19.58
3500,447,26.64
3501,404,19.3
3502,422,19.58
3503,421,19.58
3504,437,0.15
3505,198,26.57
3506,192,19.91
3506,445,19.58
3508,441,5.32
3509,453,19.58
3510,446,4.9
3511,444,19.93
3512,442,26.56
3513,441,5.32
3514,444,19.91
3515,447,12.05
3516,392,19.91
3517,435,5.32
3518,406,19.58
3519,422,5.32
3520,413,19.58
3521,408,19.93
3522,207,19.91
3523,409,5.32
3524,430,19.93
3525,419,19.58
3526,254,19.91
3527,434,19.93
3528,435,27.76
3529,442,5.32
3530,447,5.32
3531,442,5.32
3532,207,25.09
3533,297,0.49
3534,409,19.3
3535,409,19.58
3536,401,5.32
3537,405,5.32
3538,458,24.98
3539,444,26.56
3540,444,19.93
3541,443,26.52
3542,448,5.32
3543,447,19.58
3544,403,12.05
3545,419,19.32
3546,402,5.32
3547,401,12.05
3548,431,19.93
3549,449,19.92
3550,445,19.58
3551,410,5.32
3552,409,12.05
3553,153,19.58
3554,437,19.91
3555,284,14.9
3556,419,19.93
3557,430,19.58
3558,442,5.32
3559,441,5.32
3560,446,19.58
3561,399,4.9
3562,401,19.58
3563,444,0.03
3564,446,19.58
3565,257,26.66
3566,400,5.32
3567,404,2.45
3568,450,19.34
3569,447,19.93
3570,449,12.05
3571,401,19.58
3572,406,17.59
3573,443,19.58
3574,322,19.58
3575,424,19.58
3576,359,19.58
3577,401,26.66
3578,412,19.58
3579,191,5.32
3580,419,19.92
3581,443,5.32
3582,434,19.91
3583,450,19.58
3584,421,5.32
3585,419,19.58
3586,399,26.58
3587,442,26.58
3588,440,19.91
3589,444,19.58
3590,445,5.32
3591,440,5.32
3592,209,26.53
3593,407,19.88
3594,448,19.58
3595,447,19.29
3596,402,5.32
3597,413,19.58
3598,420,5.32
3599,441,4.9
3600,433,5.32
3601,400,19.58
3602,413,5.32
3603,419,19.58
3604,424,24.99
3605,445,5.32
3606,445,14.7
3607,450,5.32
3608,442,19.92
3609,446,24.98
3610,445,5.32
3611,444,19.93
3612,445,5.32
3613,449,4.9
3614,442,19.58
3615,452,19.93
3616,414,19.58
3617,456,5.69
3618,402,19.3
3619,403,19.9
3620,421,19.58
3621,236,5.32
3622,412,5.48
3623,175,19.58
3624,410,19.58
3625,442,26.64
3626,420,26.65
3627,428,26.52
3628,419,5.32
3629,417,4.9
3630,241,5.32
3631,229,19.9
3632,418,19.33
3633,439,19.58
3634,444,24.98
3635,444,19.32
3636,444,14.9
3637,397,5.48
3638,446,24.98
3639,446,19.58
3640,235,19.58
3641,445,5.32
3642,443,5.32
3643,448,19.91
3644,441,19.58
3645,192,19.58
3646,400,12.05
3647,399,12.61
3648,256,19.93
3649,278,19.91
3650,444,26.65
3651,447,5.48
3652,443,27.76
3653,442,5.32
3654,444,5.32
3655,445,19.58
3656,446,5.48
3657,443,15.84
3658,491,19.58
3659,445,9.96
3660,448,19.93
3661,437,19.93
3662,446,4.93
3663,449,19.33
3664,447,12.05
3665,450,19.33
3666,443,19.58
3667,437,21.93
3668,405,5.32
3669,226,5.32
3670,414,27.75
3671,423,19.93
3672,401,0.02
3673,415,5.32
3674,409,19.58
3675,398,5.32
3676,441,19.58
3677,449,19.92
3678,416,5.32
3679,304,0.05
3680,427,5.32
3681,212,19.58
3682,435,19.58
3683,432,26.54
3684,444,19.91
3685,444,26.56
3686,444,19.91
3687,439,19.58
3688,447,19.33
3689,445,24.98
3690,434,19.31
3691,449,5.32
3692,447,19.93
3693,440,9.96
3694,419,19.93
3695,410,5.32
3696,409,19.58
3697,445,19.58
3698,446,21.93
3699,409,19.9
3700,401,5.32
3701,409,5.32
3702,426,5.32
3703,444,19.58
3704,191,19.93
3705,420,26.52
3706,420,18.26
3707,426,14.41
3708,460,5.32
3709,448,19.58
3710,445,4.9
3711,452,24.99
3712,445,24.98
3713,444,5.32
3714,443,19.9
3715,426,2.45
3716,258,24.99
3717,240,5.48
3718,401,19.58
3719,399,4.93
3720,417,19.58
3721,184,4.9
3722,406,5.32
3723,423,5.99
3724,421,5.32
3725,398,19.58
3726,406,19.3
3727,235,26.66
3728,280,5.32
3729,448,19.91
3730,428,19.92
3731,420,19.58
3732,423,5.69
3733,426,19.58
3734,433,19.58
3735,416,5.32
3736,415,19.93
3737,447,24.98
3738,447,0.2
3739,445,19.58
3740,445,19.91
3741,421,5.32
3742,404,26.52
3743,399,26.57
3744,399,19.58
3745,409,5.48
3746,415,5.32
3747,410,26.58
3748,267,19.3
3749,246,5.32
3750,281,19.58
3751,427,19.34
3752,444,17.71
3753,420,19.58
3754,223,19.92
3755,443,19.58
3756,447,0.0
3757,424,5.32
3758,428,27.76
3759,447,19.58
3760,434,19.58
3761,445,24.98
3762,446,19.58
3763,449,10.4
3764,444,19.93
3765,442,19.58
3766,436,26.66
3767,450,19.58
3768,451,19.93
3769,410,5.32
3770,399,19.91
3771,209,19.58
3772,406,24.98
3773,198,24.98
3774,401,24.27
3775,407,26.51
3776,422,19.33
3777,431,19.93
3778,257,19.91
3779,322,5.32
3780,419,21.93
3781,423,5.32
3782,275,19.88
3783,424,14.7
3784,431,26.64
3785,441,5.99
3786,444,19.58
3787,437,19.91
3788,444,19.58
3789,445,19.93
3790,449,5.32
3791,289,19.58
3792,421,19.58
3793,252,19.58
3794,300,2.45
3795,447,19.91
3796,444,19.93
3797,418,5.32
3797,407,19.31
3799,401,5.99
3800,426,5.32
3801,420,19.31
3802,196,19.58
3803,215,19.58
3804,453,19.5
3805,421,19.58
3806,445,4.9
3807,444,19.58
3808,410,19.93
3809,445,19.93
3810,446,19.58
3811,410,5.32
3812,404,19.29
3813,195,19.58
3814,451,5.32
3815,446,5.32
3816,407,27.76
3817,418,5.32
3818,415,19.58
3819,235,19.58
3820,434,19.58
3821,407,4.9
3822,412,19.58
3823,413,19.93
3824,423,26.51
3825,420,10.4
3826,421,19.93
3827,437,5.32
3828,447,19.93
3829,449,19.93
3830,444,19.32
3831,460,5.48
3832,444,19.93
3833,443,5.32
3834,400,26.56
3835,419,4.9
3836,439,5.99
3837,442,19.58
3838,398,19.91
3839,401,19.58
3840,406,19.9
3841,407,5.32
3842,423,5.69
3843,264,5.32
3844,419,19.58
3845,411,19.58
3846,445,19.93
3847,421,5.32
3848,432,5.32
3849,423,5.32
3850,430,5.32
3851,446,19.93
3852,444,27.72
3853,445,19.93
3854,446,5.32
3855,424,24.99
3856,429,5.32
3857,449,24.99
3858,445,19.58
3859,435,19.92
3860,409,18.2
3861,403,26.64
3862,447,19.93
3863,444,19.58
3864,404,19.58
3865,409,19.58
3866,448,5.32
3867,420,19.91
3868,448,5.32
3869,398,0.2
3870,400,19.58
3871,217,19.31
3872,199,26.57
3873,341,12.04
3874,423,0.0
3875,443,5.32
3876,445,2.45
3877,297,5.32
3878,282,27.76
3879,420,19.93
3880,412,19.92
3881,403,19.58
3882,401,5.32
3883,447,24.98
3884,444,5.32
3885,446,19.58
3886,407,19.58
3887,445,19.58
3888,429,5.32
3889,445,19.92
3890,424,5.32
3891,447,10.68
3892,201,5.32
3893,248,19.93
3894,442,5.32
3895,425,19.58
3896,179,19.58
3897,447,5.48
3898,447,0.0
3899,446,5.32
3900,437,5.32
3901,446,24.98
3902,244,19.93
3903,442,5.32
3904,422,19.31
3905,403,19.93
3906,403,24.99
3907,430,24.27
3908,422,24.29
3909,446,24.99
3910,402,24.99
3911,418,19.58
3912,412,26.64
3913,445,19.93
3914,216,26.52
3915,447,10.4
3916,429,27.78
3917,433,5.32
3918,422,19.58
3919,424,5.32
3920,446,19.33
3921,431,12.04
3922,420,5.32
3923,445,27.78
3924,443,5.32
3925,491,19.33
3926,442,12.05
3927,446,5.48
3928,454,26.52
3929,452,10.4
3930,443,19.93
3931,411,5.32
3932,448,19.93
3933,411,19.58
3934,409,14.7
3935,400,19.58
3936,443,5.32
3937,409,19.58
3938,427,5.32
3939,435,19.91
3940,447,0.0
3941,436,19.58
3942,425,19.58
3943,437,26.64
3944,193,19.58
3945,180,19.3
3946,446,5.32
3947,443,19.58
3948,447,19.58
3949,435,19.3
3950,443,19.58
3951,451,19.58
3952,445,19.93
3953,412,26.66
3954,447,19.93
3955,445,5.32
3956,400,19.29
3957,402,5.32
3958,403,5.32
3959,241,26.65
3960,208,19.58
3961,367,14.9
3962,240,19.93
3963,422,5.32
3964,433,0.05
3965,448,19.58
3966,439,0.03
3967,421,19.58
3968,328,26.64
3969,422,27.29
3970,445,4.9
3971,445,19.93
3972,452,19.91
3973,437,19.58
3974,450,5.32
3975,438,19.91
3976,444,19.58
3977,447,5.32
3978,427,26.65
3979,447,24.98
3980,402,5.32
3981,400,19.3
3982,408,24.27
3983,432,19.3
3984,409,4.9
3985,420,19.58
3986,412,4.9
3987,409,26.64
3988,424,19.32
3989,221,19.58
3990,445,10.4
3991,447,19.32
3992,445,26.66
3993,443,19.58
3994,444,19.93
3995,402,12.05
3996,401,19.58
3997,451,19.58
3998,445,19.58
3999,445,14.9
4000,448,5.32
4001,449,5.32
4002,409,19.29
4003,443,27.76
4004,448,19.58
4005,419,5.32
4006,427,12.05
4007,406,19.58
4008,412,19.58
4009,422,19.58
4010,414,19.58
4011,379,10.4
4012,217,24.98
4013,403,19.58
4014,418,15.84
4015,439,19.93
4016,437,19.58
4017,427,24.98
4018,437,19.58
4019,445,19.58
4020,446,19.91
4021,442,26.52
4022,450,19.58
4023,425,19.58
4024,438,19.58
4025,445,26.66
4026,419,19.93
4027,441,19.58
4028,445,19.58
4029,400,0.2
4030,402,27.76
4031,404,19.92
4032,399,19.31
4033,408,26.52
4034,419,19.58
4035,401,19.58
4036,448,26.58
4037,421,5.32
4038,424,5.32
4039,166,5.32
4040,244,19.93
4041,446,19.58
4042,436,19.58
4043,444,19.88
4044,432,0.0
4045,437,14.41
4046,447,19.58
4047,448,19.93
4048,446,19.93
4049,446,19.35
4050,446,14.7
4051,452,19.58
4052,448,12.04
4053,445,5.32
4054,445,5.32
4055,443,19.58
4056,422,19.58
4057,204,19.58
4058,420,19.91
4059,403,19.58
4060,418,26.66
4061,414,5.32
4062,300,19.58
4063,435,19.91
4064,446,18.26
4065,420,5.32
4066,380,19.58
4067,423,19.58
4068,422,19.58
4069,436,19.58
4070,424,5.99
4071,420,19.58
4072,447,19.58
4073,433,19.9
4074,438,19.3
4075,402,5.32
4076,463,5.32
4077,444,19.93
4078,407,19.32
4079,445,19.58
4080,448,10.4
4081,214,24.27
4082,401,19.58
4083,401,26.52
4084,419,19.58
4085,401,12.05
4086,408,5.32
4087,400,19.58
4088,408,12.05
4089,410,19.93
4090,190,24.27
4091,424,24.98
4092,419,19.58
4093,195,27.76
4094,439,19.93
4095,421,19.58
4096,419,19.93
4097,403,5.32
4098,398,24.98
4099,449,19.9
4100,443,5.32
4101,442,19.93
4102,447,5.48
4103,443,24.98
4104,399,19.51
4105,445,17.7
4106,443,5.32
4107,397,14.9
4108,408,24.98
4109,413,19.93
4110,405,26.64
4111,422,10.4
4112,275,24.98
4113,349,5.32
4114,421,19.58
4115,236,24.99
4116,375,20.03
4117,421,19.9
4118,448,5.32
4119,451,27.76
4120,447,19.58
4121,447,19.58
4122,445,19.3
4123,445,26.64
4124,413,19.58
4125,445,5.32
4126,449,5.32
4127,404,19.93
4128,402,27.72
4129,401,19.91
4130,448,27.76
4131,408,19.93
4132,402,16.06
4133,407,24.26
4134,420,27.74
4135,401,19.93
4136,409,5.32
4137,402,19.58
4138,401,5.32
4139,404,19.31
4140,178,19.58
4141,426,19.58
4142,445,15.84
4143,442,5.32
4144,418,19.91
4145,422,19.93
4146,451,19.58
4147,430,19.91
4148,446,5.32
4149,438,5.32
4150,489,12.05
4151,435,19.92
4152,444,19.92
4153,443,27.72
4154,434,19.93
4155,447,27.76
4156,449,19.91
4157,453,5.32
4158,446,19.93
4159,425,19.93
4160,442,5.32
4161,445,19.93
4162,401,19.58
4163,421,0.22
4164,413,19.58
4165,442,10.4
4166,444,19.58
4167,425,19.93
4168,315,5.32
4169,321,19.58
4170,444,18.37
4171,255,5.32
4172,334,17.52
4173,453,26.64
4174,445,19.29
4175,446,19.93
4176,401,5.32
4177,456,19.58
4178,444,5.32
4179,450,19.58
4180,446,5.32
4181,418,19.58
4182,447,19.58
4183,210,19.58
4184,401,19.93
4185,400,19.93
4186,445,5.32
4187,112,19.91
4188,109,19.58
4189,447,5.32
4190,426,19.58
4191,436,14.7
4192,444,10.4
4193,448,19.58
4194,446,5.32
4195,447,26.63
4196,412,19.9
4197,445,5.99
4198,445,19.58
4199,414,5.32
4200,443,17.52
4201,414,19.58
4202,434,19.91
4203,394,19.5
4204,462,27.72
4205,432,4.9
4206,444,24.98
4207,406,5.48
4208,433,19.93
4209,405,0.0
4210,408,19.58
4211,450,19.94
4212,447,19.58
4213,421,19.93
4214,416,24.98
4215,422,5.32
4216,449,5.32
4217,444,19.91
4218,454,10.4
4219,447,2.76
4220,416,19.58
4221,451,19.58
4222,405,19.51
4223,410,19.58
4224,447,5.32
4225,410,5.32
4226,445,19.92
4227,424,19.91
4228,424,19.58
4229,140,24.98
4230,447,19.32
4231,450,5.32
4232,446,10.4
4233,441,19.58
4234,182,27.76
4235,446,19.58
4236,449,19.58
4237,406,5.32
4238,400,5.32
4239,448,0.6
4240,445,22.74
4241,428,19.91
4242,445,5.32
4243,438,26.52
4244,423,24.27
4245,446,19.58
4246,449,5.32
4247,442,14.7
4248,402,19.58
4249,402,19.58
4250,449,26.57
4251,449,19.58
4252,421,19.58
4253,423,5.48
4254,420,19.58
4255,434,19.58
4256,448,26.52
4257,447,27.76
4258,445,26.66
4259,433,19.94
4260,434,19.58
4261,441,19.91
4262,446,19.58
4263,450,5.32
4264,446,15.84
4265,455,26.64
4266,449,14.7
4267,451,4.9
4268,432,19.58
4269,412,5.32
4270,407,19.5
4271,426,19.58
4272,422,19.58
4273,428,4.9
4274,440,14.7
4275,445,10.4
4276,450,24.99
4277,438,18.26
4278,452,19.58
4279,428,26.64
4280,428,19.93
4281,450,19.58
4282,438,14.9
4283,441,26.63
4284,446,19.58
4285,447,19.58
4286,448,26.65
4287,447,26.65
4288,427,19.58
4289,448,19.58
4290,404,10.4
4291,297,19.58
4292,439,19.58
4293,421,5.32
4294,443,19.33
4295,404,19.91
4296,411,5.32
4297,436,19.58
4298,432,4.9
4299,426,19.9
4300,437,27.29
4301,443,26.57
4302,441,5.32
4303,447,5.32
4304,447,24.98
4305,405,19.58
4306,404,24.98
4307,437,12.62
4308,437,5.32
4309,442,5.32
4310,447,10.4
4311,443,14.7
4312,442,19.93
4313,39,19.58
4314,447,19.91
4315,446,19.91
4316,405,5.32
4317,442,5.32
4318,428,17.59
4319,420,5.32
4320,422,19.58
4321,447,26.64
4322,449,19.58
4323,69,5.32
4324,291,19.58
4325,432,27.76
4326,435,19.91
4327,441,5.32
4328,432,19.58
4329,425,10.4
4330,443,19.91
4331,446,26.64
4332,438,5.32
4333,446,19.9
4334,445,19.91
4335,448,24.98
4336,443,4.9
4337,445,19.58
4338,414,19.58
4339,442,19.93
4340,418,4.93
4341,440,5.32
4342,442,18.37
4343,407,15.84
4344,404,19.58
4345,426,19.58
4346,71,5.32
4347,432,19.91
4348,46,19.58
4349,6,14.7
4350,423,5.32
4351,446,19.58
4352,431,26.52
4353,428,5.32
4354,456,24.27
4355,425,19.31
4356,418,19.9
4357,448,19.93
4358,447,19.9
4359,445,19.58
4360,447,26.65
4361,443,26.58
4362,243,10.4
4363,412,19.58
4364,442,19.93
4365,443,19.58
4366,414,5.32
4367,410,19.58
4368,445,24.99
4369,437,19.58
4370,402,19.58
4371,408,19.58
4372,428,0.2
4373,432,10.4
4374,429,19.58
4375,422,19.91
4376,438,26.52
4377,450,19.58
4378,453,5.32
4379,432,19.58
4380,438,10.68
4381,445,19.33
4382,404,26.64
4383,403,24.27
4384,405,5.48
4385,404,5.32
4386,403,24.99
4387,415,19.3
4388,422,19.3
4389,406,5.32
4390,401,26.64
4391,422,19.58
4392,422,27.76
4393,401,5.32
4394,409,4.9
4395,446,19.92
4396,194,2.45
4397,437,19.58
4398,420,19.93
4399,429,19.91
4400,403,14.7
4401,436,19.58
4402,446,10.4
4403,464,14.9
4404,445,5.32
4405,447,5.32
4406,445,19.32
4407,443,5.32
4408,448,19.3
4409,415,19.58
4410,426,19.58
4411,217,19.58
4412,440,26.58
4413,400,19.31
4414,436,27.76
4415,181,19.58
4416,155,4.9
4417,445,24.99
4418,422,19.58
4419,421,19.58
4420,189,4.9
4421,422,27.29
4422,447,19.93
4423,445,5.32
4424,447,7.3
4425,447,4.9
4426,320,19.88
4427,405,27.76
4428,304,19.58
4429,454,27.76
4430,446,26.54
4431,422,24.99
4432,449,5.32
4433,411,19.58
4434,443,0.03
4435,415,19.58
4436,402,17.71
4437,266,5.32
4438,238,19.58
4439,447,19.32
4440,421,19.58
4441,435,27.76
4442,443,19.93
4443,446,19.93
4444,446,19.58
4445,446,26.64
4446,446,5.32
4447,428,15.84
4448,401,5.32
4449,439,19.91
4450,443,19.93
4451,156,5.32
4452,398,19.93
4453,413,0.0
4454,448,19.58
4455,448,24.99
4456,447,0.2
4457,432,5.32
4458,440,19.29
4459,450,5.32
4460,444,5.32
4461,437,19.92
4462,446,19.3
4463,446,5.48
4464,401,19.58
4465,447,5.32
4466,444,19.58
4467,440,19.93
4468,400,19.58
4469,450,17.52
4470,392,7.94
4471,453,2.45
4472,380,19.58
4473,203,18.26
4474,242,19.58
4475,448,19.58
4476,402,19.92
4477,418,19.58
4478,445,19.31
4479,303,19.3
4480,166,19.58
4481,186,19.58
4482,424,19.91
4483,420,24.98
4484,165,19.58
4485,444,19.58
4486,422,19.5
4487,156,21.93
4488,444,24.27
4489,445,19.58
4490,450,27.76
4491,445,4.93
4492,446,19.58
4493,442,19.58
4494,400,19.58
4495,400,12.04
4496,404,19.58
4497,405,5.32
4498,446,21.15
4499,411,19.93
4500,426,5.32
4501,423,14.9
4502,423,5.32
4503,445,26.52
4504,447,27.72
4505,448,21.93
4506,429,5.48
4507,402,5.32
4508,443,19.58
4509,342,26.66
4510,444,19.58
4511,431,19.93
4512,445,19.58
4513,442,5.32
4514,429,19.32
4515,449,19.58
4516,432,19.9
4517,402,5.32
4518,427,5.32
4519,295,19.91
4520,192,5.32
4521,215,19.93
4522,417,19.58
4523,446,19.93
4524,407,19.32
4525,410,19.58
4526,400,19.91
4527,444,19.58
4528,476,26.55
4529,402,5.32
4530,399,19.58
4531,425,27.78
4532,424,19.58
4533,449,19.91
4534,450,19.93
4535,445,5.32
4536,444,0.05
4537,445,19.58
4538,447,19.58
4539,445,14.9
4540,444,19.58
4541,437,19.93
4542,448,19.92
4543,444,19.58
4544,405,5.32
4545,448,19.3
4546,437,19.48
4547,415,26.52
4548,411,19.58
4549,445,19.58
4550,194,19.92
4551,180,19.58
4552,403,19.93
4553,403,4.9
4554,448,19.58
4555,445,5.32
4556,425,19.58
4557,411,18.2
4558,452,5.32
4559,429,19.93
4560,421,19.58
4561,416,19.58
4562,386,12.05
4563,401,19.93
4564,401,19.58
4565,413,27.78
4566,404,19.93
4567,450,24.98
4568,444,5.32
4569,447,10.68
4570,186,0.6
4571,162,19.32
4572,447,19.91
4573,404,19.58
4574,406,19.58
4575,395,5.32
4576,402,19.92
4577,438,24.98
4578,454,19.58
4579,413,26.64
4580,448,19.58
4581,443,19.58
4582,415,19.58
4583,403,5.32
4584,412,19.48
4585,420,19.91
4586,412,5.32
4587,423,24.99
4588,420,19.9
4589,405,24.27
4590,445,5.32
4591,443,5.32
4592,428,4.9
4593,434,12.05
4594,223,12.05
4595,211,19.58
4596,444,5.32
4597,448,19.93
4598,449,26.64
4599,453,26.66
4600,442,19.3
4601,440,4.93
4602,448,5.32
4603,447,19.58
4604,442,19.93
4605,447,26.56
4606,405,5.32
4607,185,5.32
4608,436,19.58
4609,396,26.52
4610,417,19.9
4611,400,27.76
4612,397,19.58
4613,402,5.32
4614,400,5.38
4615,182,26.52
4616,416,19.93
4617,409,19.31
4618,420,19.58
4619,424,5.32
4620,427,14.7
4621,477,19.58
4622,421,19.93
4623,405,19.58
4624,445,0.03
4625,446,19.93
4626,447,5.32
4627,451,10.4
4628,446,12.05
4629,446,24.99
4630,447,24.99
4631,444,24.98
4632,436,19.58
4632,443,26.64
4634,447,19.32
4635,407,19.92
4636,410,5.32
4637,400,19.93
4638,407,19.58
4639,401,19.94
4640,402,19.91
4641,434,19.58
4642,424,19.58
4643,423,19.58
4644,422,5.32
4645,429,19.92
4646,444,19.58
4647,154,17.71
4648,442,19.93
4649,434,10.4
4650,455,19.58
4651,418,12.05
4652,449,12.05
4653,445,19.58
4654,442,19.58
4655,406,19.93
4656,418,19.94
4657,408,5.48
4658,419,24.98
4659,410,19.29
4660,439,19.58
4661,407,26.53
4662,458,19.58
4663,410,19.58
4664,403,19.32
4665,181,19.91
4666,158,5.32
4667,426,19.58
4668,415,5.38
4669,435,26.52
4670,447,19.58
4671,441,5.48
4672,446,2.45
4673,449,5.32
4674,429,19.58
4675,449,5.32
4676,430,20.04
4677,443,19.9
4678,448,14.7
4679,446,5.32
4680,449,19.58
4681,444,19.91
4682,442,19.93
4683,455,26.58
4684,408,5.32
4685,420,15.84
4686,415,19.58
4687,412,0.15
4688,403,19.58
4689,409,5.32
4690,162,19.58
4691,204,5.32
4692,429,26.64
4693,428,5.32
4694,432,5.32
4695,410,27.72
4696,446,19.58
4697,447,24.98
4698,448,19.58
4699,444,19.58
4700,448,19.58
4701,445,19.93
4702,418,5.32
4703,408,19.91
4704,445,27.76
4705,441,24.99
4706,401,19.58
4707,413,21.89
4708,408,19.58
4709,405,5.32
4710,427,19.58
4711,427,19.91
4712,422,5.32
4713,401,19.58
4714,399,5.32
4715,439,19.91
4716,404,19.58
4717,422,10.4
4718,428,5.32
4719,447,21.93
4720,430,19.58
4721,425,19.58
4722,445,7.3
4723,444,27.76
4724,449,19.93
4725,437,19.58
4726,446,19.93
4727,447,19.58
4728,444,5.38
4729,432,19.32
4730,444,26.54
4731,452,24.98
4732,451,4.9
4733,406,26.64
4734,413,14.7
4735,408,19.91
4736,402,5.69
4737,184,19.93
4738,401,19.94
4739,418,4.9
4740,446,19.91
4741,429,26.52
4742,192,19.58
4743,447,5.32
4744,420,24.98
4745,423,5.32
4746,448,19.58
4747,445,24.98
4748,443,19.58
4749,443,19.32
4750,447,26.52
4751,445,5.32
4752,447,19.58
4753,445,26.51
4754,449,14.7
4755,438,5.32
4756,451,19.58
4757,402,19.58
4758,403,5.32
4759,405,5.32
4760,424,17.71
4761,419,26.66
4762,411,5.32
4763,406,26.51
4764,404,24.98
4765,425,19.58
4766,74,5.32
4767,445,19.58
4768,435,19.58
4769,429,19.51
4770,424,24.98
4771,424,19.91
4772,447,27.75
4773,447,5.38
4774,437,2.45
4775,438,19.58
4776,452,14.9
4777,447,26.64
4778,445,5.32
4779,445,19.91
4780,449,5.32
4781,438,19.58
4782,437,0.0
4783,448,4.9
4784,423,24.98
4785,410,19.58
4786,427,19.58
4787,418,5.32
4788,443,14.9
4789,427,5.99
4790,408,19.91
4791,437,19.58
4792,423,10.4
4793,436,26.64
4794,405,24.99
4795,446,19.58
4796,449,19.58
4797,445,19.94
4798,445,19.58
4799,448,5.32
4800,447,19.58
4801,455,5.32
4802,397,19.58
4803,447,19.5
4804,445,5.32
4805,418,19.93
4806,419,24.98
4807,413,19.93
4808,159,19.93
4809,208,5.32
4810,418,19.58
4811,423,24.99
4812,430,19.58
4813,154,5.32
4814,250,5.99
4815,176,5.48
4816,445,19.58
4817,438,5.32
4818,433,19.31
4819,448,10.68
4820,431,18.2
4821,443,5.32
4822,446,5.32
4823,467,19.91
4824,453,19.93
4825,446,19.58
4826,449,5.69
4827,445,7.3
4828,408,5.32
4829,435,24.27
4830,428,0.0
4831,428,24.98
4832,423,26.51
4833,426,19.91
4834,403,19.3
4835,400,19.93
4836,280,24.98
4837,406,19.58
4838,175,19.93
4839,381,19.58
4840,443,26.64
4841,447,5.32
4842,443,19.58
4843,447,19.58
4844,450,19.9
4845,456,19.3
4846,445,19.91
4847,447,24.98
4848,273,19.93
4849,419,24.99
4850,446,19.58
4851,446,19.58
4852,446,10.4
4853,443,26.63
4854,409,4.9
4855,409,26.58
4856,468,19.58
4857,452,19.91
4858,441,24.98
4859,431,24.98
4860,405,19.58
4861,402,19.92
4862,409,19.58
4863,202,26.64
4864,422,10.4
4865,406,5.32
4866,418,12.62
4867,445,19.31
4868,429,19.93
4869,423,5.32
4870,424,19.91
4871,446,19.58
4872,425,15.84
4873,425,24.98
4874,401,5.32
4875,418,19.31
4876,408,24.98
4877,446,27.76
4878,456,24.99
4879,444,19.93
4880,447,19.91
4881,410,19.93
4882,405,12.05
4883,419,19.58
4884,408,19.26
4885,412,19.33
4886,404,5.32
4887,401,19.58
4888,157,24.98
4889,184,5.32
4890,418,19.58
4891,419,10.68
4892,449,19.93
4893,445,19.33
4894,445,19.58
4895,450,26.66
4896,446,19.58
4897,445,12.05
4898,447,19.3
4899,442,26.66
4900,460,19.92
4901,446,19.9
4902,417,26.58
4903,423,19.9
4904,409,19.9
4905,409,5.32
4906,430,5.38
4907,450,19.93
4908,405,19.93
4909,290,19.32
4910,446,14.9
4911,427,19.58
4912,406,19.58
4913,425,5.32
4914,424,19.9
4915,154,26.57
4916,425,26.52
4917,440,19.3
4918,436,27.76
4919,425,19.88
4920,434,5.32
4921,451,14.7
4922,450,17.71
4923,447,4.94
4924,447,19.58
4925,446,5.32
4926,453,19.93
4927,444,19.92
4928,401,5.32
4929,450,27.72
4930,449,26.66
4931,407,19.93
4932,427,19.58
4933,422,14.7
4934,447,19.93
4935,437,19.93
4936,450,19.58
4937,442,24.98
4938,163,26.52
4939,424,19.58
4940,448,19.58
4941,422,5.32
4942,149,19.58
4943,447,24.98
4944,446,27.76
4945,450,19.3
4946,446,19.58
4947,448,19.58
4948,445,19.58
4949,444,19.58
4950,137,5.32
4951,404,26.56
4952,402,19.91
4953,451,19.93
4954,440,19.88
4955,420,19.92
4956,425,19.58
4957,423,19.91
4958,425,19.9
4959,154,24.27
4960,211,19.91
4961,186,19.93
4962,427,19.3
4963,424,19.5
4964,446,19.58
4965,446,5.32
4966,440,5.38
4967,428,19.58
4968,436,19.93
4969,444,19.58
4970,446,19.58
4971,443,19.9
4972,443,5.32
4973,446,19.58
4974,447,19.91
4975,426,19.58
4976,403,19.58
4977,402,5.32
4978,402,12.05
4979,403,19.58
4980,450,5.32
4981,429,14.41
4982,412,19.93
4983,416,19.93
4984,411,0.01
4985,449,27.76
4986,160,14.9
4987,418,19.91
4988,446,27.76
4989,435,15.84
4990,446,27.76
4991,233,19.91
4992,409,19.91
4993,435,19.93
4994,434,19.58
4995,450,4.93
4996,440,19.9
4997,443,19.93
4998,446,19.9
4999,444,5.32
5000,446,26.66
5001,447,24.98
5002,406,19.58
5003,447,19.3
5004,446,5.32
5005,435,24.26
5006,415,19.58
5007,411,19.58
5008,391,19.9
5009,221,5.38
5010,446,18.37
5011,446,19.58
5012,432,19.93
5013,406,5.32
5014,151,19.93
5015,427,5.32
5016,169,26.52
5017,419,19.58
5018,451,10.68
5019,450,5.32
5020,491,24.98
5021,445,19.9
5022,446,14.7
5023,445,19.92
5024,408,26.66
5025,446,19.58
5026,444,19.91
5027,402,19.93
5028,411,5.32
5029,404,19.33
5030,410,19.93
5031,404,19.34
5032,402,19.91
5033,411,19.93
5034,446,24.99
5035,235,19.91
5036,209,19.58
5037,425,19.58
5038,425,19.58
5039,151,5.32
5040,115,24.98
5041,452,19.93
5042,449,0.0
5043,403,2.45
5044,444,26.57
5045,446,5.38
5046,412,27.76
5047,445,10.4
5048,437,24.98
5049,425,5.32
5050,413,19.58
5051,402,19.9
5052,404,19.3
5053,406,26.58
5054,412,19.91
5055,431,5.32
5056,424,26.54
5057,402,19.88
5058,431,5.32
5059,162,24.98
5060,180,19.58
5061,423,2.45
5062,429,5.32
5063,449,19.91
5064,447,19.58
5065,439,5.32
5066,442,17.71
5067,493,5.32
5068,430,24.98
5069,434,19.92
5070,446,19.58
5071,463,26.54
5072,448,19.91
5073,446,19.91
5074,433,9.96
5075,424,17.52
5076,412,5.32
5077,406,5.32
5078,441,19.58
5079,406,19.58
5080,251,4.9
5081,446,19.91
5082,402,5.32
5083,459,24.27
5084,447,19.91
5085,426,19.58
5086,434,5.32
5087,433,12.05
5088,437,19.58
5089,277,19.93
5090,424,19.58
5091,448,5.32
5092,435,19.58
5093,446,19.93
5094,401,18.2
5095,447,27.76
5096,443,26.52
5097,421,5.32
5098,444,19.91
5099,444,19.58
5100,446,5.32
5101,426,26.55
5102,445,19.92
5103,402,4.9
5104,412,5.32
5105,451,19.93
5106,438,24.98
5107,436,20.06
5108,449,5.32
5109,264,5.32
5110,229,19.9
5111,436,19.91
5112,436,0.0
5113,422,19.91
5114,424,4.9
5115,448,19.91
5116,434,19.58
5117,449,26.54
5118,445,19.93
5119,448,5.32
5120,447,19.93
5121,446,26.52
5122,450,26.56
5123,446,26.57
5124,416,5.32
5125,400,26.64
5126,403,19.93
5127,437,5.32
5128,412,19.58
5129,406,19.5
5130,449,27.72
5131,402,19.93
5132,413,19.58
5133,449,5.32
5134,163,5.32
5135,190,24.27
5136,410,19.58
5137,437,27.76
5138,427,12.05
5139,190,19.58
5140,452,27.76
5141,445,5.32
5142,443,4.93
5143,423,5.48
5144,442,19.58
5145,464,19.58
5146,419,19.3
5147,402,19.31
5148,430,5.32
5149,406,24.99
5150,168,24.98
5151,424,19.91
5152,429,5.48
5153,424,19.58
5154,205,26.52
5155,422,19.58
5156,426,26.66
5157,428,19.58
5158,433,26.66
5159,449,19.58
5160,449,5.32
5161,403,5.32
5162,438,14.7
5163,438,5.32
5164,407,19.58
5165,447,19.93
5166,447,5.32
5167,432,19.91
5168,406,24.27
5169,403,19.58
5170,410,18.2
5171,436,26.64
5172,454,19.93
5173,487,27.78
5174,386,19.58
5175,187,19.58
5176,159,19.58
5177,448,26.55
5178,436,10.4
5179,451,24.27
5180,448,19.58
5181,448,5.32
5182,447,19.91
5183,445,19.91
5184,446,5.32
5185,189,19.91
5186,400,24.27
5187,450,19.58
5188,420,19.93
5189,416,5.32
5190,401,24.98
5191,440,18.26
5192,451,19.93
5193,402,5.38
5194,445,27.76
5195,176,19.93
5196,425,19.92
5197,418,27.72
5198,419,24.98
5199,447,26.51
5200,422,5.32
5201,428,0.6
5202,404,5.32
5203,449,24.99
5204,451,24.98
5205,406,19.32
5206,446,18.26
5207,446,19.58
5208,181,19.58
5209,411,19.92
5210,424,5.32
5211,450,19.93
5212,407,10.4
5213,425,2.45
5214,403,19.29
5215,402,5.38
5216,434,26.52
5217,219,5.32
5218,196,0.05
5219,451,5.32
5220,151,19.58
5221,424,20.04
5222,441,5.32
5223,436,0.03
5224,436,5.32
5225,423,19.93
5226,404,26.56
5227,451,5.32
5228,432,19.58
5229,423,5.32
5230,402,5.32
5231,405,19.32
5232,249,5.32
5233,406,5.48
5234,445,14.9
5235,429,19.9
5236,398,5.32
5237,442,19.58
5238,441,0.03
5239,302,19.58
5240,367,19.32
5241,448,19.93
5242,248,19.58
5243,433,5.32
5244,407,19.58
5245,453,4.9
5246,448,19.32
5247,453,19.58
5248,446,19.58
5249,413,5.32
5250,427,19.93
5251,425,5.32
5252,446,10.4
5253,444,19.58
5254,403,26.66
5255,406,12.04
5256,415,19.58
5257,406,20.05
5258,448,26.57
5259,410,19.58
5260,403,0.0
5261,450,19.91
5262,445,24.98
5263,444,19.93
5264,425,19.58
5265,160,19.58
5266,423,0.0
5267,403,5.32
5268,449,19.58
5269,444,26.64
5270,444,19.58
5271,448,19.91
5272,120,0.03
5273,425,5.32
5274,446,19.9
5275,445,5.32
5276,308,5.32
5277,410,5.99
5278,405,2.01
5279,420,5.32
5280,434,19.93
5281,404,19.58
5282,402,0.0
5283,445,19.58
5284,439,5.38
5285,423,24.99
5286,440,5.32
5287,154,19.58
5288,215,5.32
5289,454,5.38
5290,447,19.58
5291,420,19.58
5292,449,24.98
5293,418,5.32
5294,404,5.32
5295,450,19.9
5296,420,18.31
5297,415,19.58
5298,410,27.76
5299,416,19.91
5300,435,5.32
5301,401,19.58
5302,403,19.58
5303,443,5.32
5304,403,19.93
5305,170,26.58
5306,425,19.93
5307,447,26.52
5308,154,5.32
5309,423,5.32
5310,440,19.58
5311,448,19.58
5312,405,19.93
5313,433,19.58
5314,444,5.32
5315,445,19.58
5316,447,19.58
5317,446,19.91
5318,428,24.27
5319,422,19.33
5320,427,5.32
5321,437,5.32
5322,423,19.58
5323,426,19.58
5324,452,19.93
5325,448,19.58
5326,445,19.93
5327,447,19.58
5328,422,26.63
5329,151,19.58
5330,439,19.58
5331,439,5.48
5332,452,5.32
5333,426,24.99
5334,227,19.93
5335,440,19.58
5336,445,5.32
5337,438,5.32
5338,445,5.48
5339,447,19.33
5340,439,19.58
5341,445,19.94
5342,449,19.93
5343,431,5.32
5344,414,5.32
5345,432,24.99
5346,437,19.58
5347,405,10.4
5348,428,19.32
5349,450,5.32
5350,424,26.57
5351,432,2.45
5352,431,12.05
5353,448,12.62
5354,449,19.58
5355,447,24.99
5356,413,4.94
5357,445,14.7
5358,446,5.32
5359,405,5.32
5360,445,19.91
5361,446,0.0
5362,177,5.32
5363,446,19.58
5364,402,4.9
5365,401,19.58
5366,447,19.58
5367,126,2.45
5368,128,19.58
5369,444,24.99
5370,449,19.58
5371,444,24.98
5372,428,19.88
5373,425,26.56
5374,406,5.32
5375,451,27.76
5376,449,12.05
5377,440,27.75
5378,448,5.32
5379,409,19.58
5380,443,19.58
5381,448,19.3
5382,418,5.32
5383,451,19.58
5384,452,21.89
5385,442,5.32
5386,391,19.91
5387,166,18.2
5388,439,19.93
5389,173,24.98
5390,424,19.58
5391,423,19.58
5392,424,19.58
5393,435,19.58
5394,423,4.9
5395,435,5.32
5396,408,0.21
5397,426,19.31
5398,435,5.32
5399,445,5.32
5400,444,5.32
5401,445,26.51
5402,404,19.58
5403,444,5.32
5404,426,14.41
5405,404,14.41
5406,448,17.71
5407,458,19.58
5408,421,9.96
5409,447,5.32
5410,424,19.58
5411,130,14.9
5412,444,19.58
5413,146,19.58
5414,192,5.32
5415,447,19.3
5416,423,19.26
5417,424,7.3
5418,404,19.93
5419,446,19.94
5420,444,19.58
5421,411,26.55
5422,446,27.76
5423,444,4.9
5424,446,19.9
5425,401,5.32
5426,468,19.93
5427,445,5.32
5428,450,18.26
5429,441,19.32
5430,435,19.58
5431,407,19.58
5432,404,19.58
5433,447,19.9
5434,203,5.32
5435,177,7.3
5436,453,5.32
5437,425,26.56
5438,435,19.58
5439,448,5.32
5440,447,19.58
5441,440,19.58
5442,451,19.58
5443,447,5.32
5444,411,18.26
5445,454,5.32
5446,447,19.58
5447,220,19.58
5448,450,5.32
5449,451,27.29
5450,429,19.26
5451,435,19.58
5452,411,19.58
5453,447,19.9
5454,435,19.91
5455,425,4.9
5456,444,19.91
5457,436,24.99
5458,427,19.93
5459,422,24.98
5460,444,19.51
5461,450,0.03
5462,449,19.91
5463,440,24.26
5464,445,12.05
5465,447,26.56
5466,413,24.99
5467,436,19.91
5468,427,19.58
5469,411,19.58
5470,403,19.58
5471,137,19.91
5472,444,5.32
5473,408,7.94
5474,443,19.58
5475,422,4.93
5476,443,19.93
5477,425,19.92
5478,431,5.32
5479,437,19.94
5480,421,5.32
5481,430,19.58
5482,479,19.93
5483,450,19.93
5484,446,19.58
5485,445,19.93
5486,449,19.58
5487,404,19.51
5488,411,18.37
5489,406,4.93
5490,422,4.9
5491,131,19.26
5492,401,24.98
5493,408,19.31
5494,404,19.58
5495,409,19.58
5496,449,19.9
5497,405,5.32
5498,402,17.7
5499,450,19.91
5500,447,5.48
5501,429,27.76
5502,431,5.32
5503,150,5.32
5504,366,19.58
5505,434,5.32
5506,445,5.32
5507,445,5.32
5508,407,19.3
5509,450,19.32
5510,451,19.58
5511,449,15.84
5512,447,27.72
5513,429,19.58
5514,419,20.04
5515,446,4.9
5516,403,24.98
5517,401,27.72
5518,404,5.32
5519,411,19.33
5520,408,19.58
5521,448,19.58
5522,450,19.58
5523,408,10.4
5524,229,26.57
5525,419,19.91
5526,434,5.48
5527,428,5.32
5528,424,19.91
5529,401,19.58
5530,407,5.32
5531,450,19.58
5532,449,19.58
5533,449,5.32
5534,446,5.32
5535,416,5.32
5536,447,22.14
5537,452,24.98
5538,434,19.93
5539,406,19.58
5540,405,5.48
5541,415,5.32
5542,418,19.58
5543,343,19.9
5544,440,5.32
5545,447,19.91
5546,445,19.88
5547,441,17.52
5548,436,0.05
5549,450,5.32
5550,447,24.98
5551,447,5.32
5552,447,19.58
5553,443,5.32
5554,454,19.58
5555,444,18.26
5556,447,19.58
5557,447,19.91
5558,446,19.58
5559,447,5.32
5560,451,24.99
5561,424,19.58
5562,422,19.58
5563,426,5.32
5564,418,5.48
5565,418,19.92
5566,423,19.58
5567,436,19.33
5568,425,5.32
5569,448,26.56
5570,453,19.58
5571,437,19.93
5572,449,5.32
5573,353,5.69
5574,167,19.3
5575,436,19.94
5576,447,5.32
5577,445,19.93
5578,147,19.93
5579,422,0.15
5580,450,26.64
5581,148,5.32
5582,140,9.97
5583,423,26.66
5584,407,5.32
5585,193,5.32
5586,410,18.37
5587,403,24.98
5588,403,5.32
5589,411,19.58
5590,446,5.32
5591,425,5.32
5592,426,19.91
5593,444,0.01
5594,147,5.32
5595,448,19.91
5596,451,19.93
5597,446,5.32
5598,446,19.58
5599,401,19.3
5600,447,5.32
5601,447,19.58
5602,440,17.59
5603,425,19.91
5604,452,5.32
5605,482,12.05
5606,446,0.2
5607,446,19.58
5608,158,5.32
5609,428,19.91
5610,436,19.58
5611,426,26.64
5612,455,19.91
5613,149,19.88
5614,137,19.58
5615,413,26.52
5616,436,19.93
5617,437,26.56
5618,403,14.7
5619,448,24.98
5620,450,19.93
5621,292,17.52
5622,403,5.32
5623,73,24.27
5624,447,19.91
5625,437,27.76
5626,436,24.27
5627,433,26.54
5628,451,19.58
5629,446,19.91
5630,410,19.58
5631,413,19.93
5632,448,4.9
5633,439,2.01
5634,410,19.58
5635,440,19.91
5636,424,5.32
5637,447,19.32
5638,425,19.58
5639,446,5.32
5640,446,19.91
5641,495,5.32
5642,450,5.32
5643,403,26.51
5644,411,14.27
5645,450,19.9
5646,436,12.05
5647,449,17.52
5648,436,19.33
5649,200,24.99
5650,156,10.4
5651,446,24.99
5652,402,19.58
5653,445,5.32
5654,449,19.9
5655,409,19.58
5656,414,26.56
5657,446,19.91
5658,444,19.94
5659,446,26.64
5660,450,5.32
5661,432,0.2
5662,453,5.32
5663,432,19.58
5664,426,24.27
5665,404,5.32
5666,410,26.52
5667,445,19.58
5668,451,10.4
5669,446,19.5
5670,413,5.32
5671,403,19.93
5672,446,19.58
5673,411,19.93
5674,412,19.58
5675,446,26.64
5676,432,19.91
5677,441,19.93
5678,452,26.58
5679,447,0.15
5680,439,19.58
5681,440,19.9
5682,445,19.91
5683,449,19.93
5684,419,19.33
5685,450,19.58
5686,427,0.15
5687,450,14.9
5688,446,19.91
5689,444,26.64
5690,450,5.32
5691,451,24.27
5692,293,19.93
5693,412,19.32
5694,403,24.98
5695,310,19.58
5696,406,5.32
5697,444,19.58
5698,436,19.58
5699,441,4.9
5700,444,5.32
5701,438,5.48
5702,441,19.31
5703,437,10.4
5704,438,5.32
5705,444,5.32
5706,448,19.58
5707,453,19.58
5708,448,19.93
5709,445,19.58
5710,449,19.91
5711,447,19.58
5712,420,19.93
5713,418,10.4
5714,418,19.92
5715,411,4.9
5716,426,19.9
5717,411,19.58
5718,412,26.66
5719,405,5.32
5720,449,19.58
5721,434,26.64
5722,434,26.63
5723,435,19.58
5724,445,10.4
5725,449,19.91
5726,436,10.4
5727,455,19.58
5728,449,26.58
5729,459,5.32
5730,406,19.58
5731,452,19.93
5732,449,19.91
5733,449,19.58
5734,453,0.2
5735,448,24.99
5736,451,5.32
5737,164,19.31
5738,448,19.58
5739,444,19.58
5740,427,26.54
5741,411,19.58
5742,413,19.58
5743,399,19.58
5744,445,19.58
5745,426,5.32
5746,450,26.52
5747,427,19.91
5748,427,19.3
5749,429,19.91
5750,218,5.48
5751,448,19.58
5752,449,19.58
5753,438,19.59
5754,436,19.58
5755,434,19.58
5756,404,5.32
5757,450,19.58
5758,447,4.9
5759,452,19.93
5760,402,5.32
5761,403,9.97
5762,426,19.58
5763,448,19.58
5764,448,19.93
5765,451,27.76
5766,450,19.58
5767,447,2.45
5768,408,19.58
5769,402,19.34
5770,394,19.58
5771,429,27.78
5772,417,19.58
5773,448,5.32
5774,414,19.9
5775,416,14.41
5776,431,10.4
5777,441,14.41
5778,439,19.3
5779,432,5.32
5780,442,19.3
5781,449,19.9
5782,439,18.26
5783,437,5.32
5784,443,26.64
5785,436,27.31
5786,443,10.4
5787,451,4.9
5788,449,26.66
5789,446,19.93
5790,408,19.58
5791,404,19.58
5792,425,5.32
5793,403,19.58
5794,405,19.9
5795,449,26.65
5796,424,4.9
5797,436,19.9
5798,427,19.93
5799,447,27.76
5800,434,19.58
5801,431,19.33
5802,411,7.3
5803,448,19.58
5804,447,5.32
5805,445,5.32
5806,451,12.05
5807,449,5.32
5808,413,5.32
5809,448,5.32
5810,447,19.58
5811,425,24.27
5812,449,5.32
5813,404,19.91
5814,429,19.58
5815,406,19.91
5816,417,19.58
5817,451,5.32
5818,418,5.32
5819,333,19.3
5820,407,5.32
5821,435,5.32
5822,426,19.58
5823,429,19.58
5824,426,19.93
5825,434,19.93
5826,403,26.52
5827,450,19.92
5828,447,18.37
5829,451,5.32
5830,448,19.58
5831,410,19.91
5832,451,19.58
5833,420,19.93
5834,425,5.32
5835,402,5.32
5836,438,18.47
5837,424,19.91
5838,415,24.99
5839,448,19.58
5840,419,27.76
5841,306,19.58
5842,452,24.99
5843,360,5.32
5844,285,19.93
5845,417,21.93
5846,430,0.0
5847,447,19.58
5848,445,19.58
5849,434,19.3
5850,461,19.58
5851,330,19.58
5852,424,5.32
5853,450,19.58
5854,426,0.21
5855,452,26.66
5856,414,27.76
5857,425,5.48
5858,413,19.88
5859,405,19.93
5860,404,19.58
5861,236,5.32
5862,426,5.32
5863,429,5.32
5864,321,26.52
5865,448,26.63
5866,446,19.9
5867,446,2.45
5868,449,19.93
5869,449,0.0
5870,404,19.3
5871,446,5.32
5872,445,14.7
5873,449,19.93
5874,438,19.93
5875,425,19.9
5876,448,19.93
5877,446,5.32
5878,426,19.92
5879,446,10.4
5880,455,14.9
5881,451,26.64
5882,402,19.58
5883,405,10.4
5884,430,5.32
5885,334,19.91
5886,421,5.32
5887,312,10.4
5888,414,26.64
5889,404,14.7
5890,428,19.58
5891,433,10.4
5892,341,5.32
5893,335,19.48
5894,444,19.58
5895,425,5.32
5896,433,19.92
5897,453,5.32
5898,437,19.58
5899,449,5.32
5900,448,19.58
5901,448,19.91
5902,448,5.32
5903,413,5.32
5904,447,14.7
5905,448,5.32
5906,447,5.32
5907,443,10.4
5908,447,19.58
5909,428,19.93
5910,420,24.99
5911,428,19.58
5912,423,26.57
5913,335,19.91
5914,373,19.58
5915,425,5.32
5916,426,5.32
5917,439,0.49
5918,448,10.4
5919,425,19.48
5920,430,27.29
5921,431,14.9
5922,450,19.58
5923,449,19.94
5924,451,19.58
5925,446,5.38
5926,417,26.56
5927,444,19.58
5928,415,19.58
5929,450,5.32
5930,453,27.78
5931,417,4.9
5932,414,5.38
5933,280,19.93
5934,420,27.76
5935,222,21.93
5936,189,19.31
5937,403,19.91
5938,404,18.26
5939,430,14.41
5940,197,0.0
5941,422,19.58
5942,428,19.58
5943,454,4.9
5944,193,19.93
5945,427,27.76
5946,453,26.52
5947,450,5.48
5948,446,19.91
5949,408,19.93
5950,449,27.76
5951,449,5.48
5952,434,19.58
5953,447,19.58
5954,449,19.92
5955,429,12.05
5956,414,19.58
5957,442,19.93
5958,427,27.76
5959,414,19.58
5960,428,19.58
5961,428,5.32
5962,449,7.3
5963,376,14.9
5964,443,19.58
5965,391,19.91
5966,450,14.9
5967,441,27.76
5968,450,19.93
5969,451,19.9
5970,404,5.32
5971,447,19.93
5972,448,5.32
5973,441,26.52
5974,449,10.4
5975,436,5.32
5976,451,19.58
5977,414,5.32
5978,437,5.38
5979,444,6.43
5980,408,5.32
5981,152,5.32
5982,120,24.99
5983,279,10.4
5984,418,5.32
5985,285,26.64
5985,319,19.93
5987,412,5.32
5988,447,0.0
5989,415,19.58
5990,452,19.92
5991,448,19.32
5992,450,19.91
5993,427,19.91
5994,448,27.72
5995,443,5.32
5996,430,19.58
5997,442,19.93
5998,448,5.32
5999,452,19.58
6000,451,19.58
6000,449,19.58
6000,443,24.98
6000,192,19.58
6000,448,19.91
6000,448,26.64
6000,411,5.32
6002,431,27.76
6003,448,19.92
6004,444,19.93
6006,414,19.93
6009,408,19.58
6012,330,19.58
6013,330,19.58
6014,428,26.56
6015,426,19.31
6016,428,15.84
6017,439,18.37
6018,437,19.58
6019,390,19.93
6020,441,15.77
6021,450,19.58
6022,435,5.32
6023,439,19.31
6024,446,19.32
6025,447,5.32
6026,451,26.64
6027,457,19.58
6028,410,19.93
6029,404,19.58
6030,411,5.32
6031,407,4.9
6032,409,19.58
6033,413,19.58
6034,410,19.58
6035,452,26.52
6036,409,27.76
6037,404,5.32
6038,405,19.31
6039,412,19.91
6040,432,27.76
6041,443,19.91
6042,448,5.99
6043,445,26.56
6044,447,7.3
6045,450,5.32
6046,446,5.48
6047,448,19.3
6048,453,19.58
6049,445,5.32
6050,447,27.76
6051,447,19.91
6052,228,19.31
6053,444,27.76
6054,450,19.58
6055,460,19.58
6056,453,19.31
6057,405,0.0
6058,417,26.64
6059,455,18.37
6060,424,19.58
6061,287,19.3
6062,415,19.58
6063,402,2.45
6064,430,19.93
6065,438,27.29
6066,337,19.58
6067,427,5.48
6068,435,19.58
6069,431,24.99
6070,427,19.91
6071,436,5.38
6072,415,19.58
6073,351,5.32
6074,433,19.58
6075,451,19.58
6076,452,19.29
6077,433,25.26
6078,457,19.92
6079,417,26.64
6080,406,19.58
6081,408,12.05
6082,448,5.32
6083,405,24.27
6084,451,19.93
6085,431,19.58
6086,411,19.93
6087,405,19.91
6088,444,5.32
6089,276,24.99
6090,427,19.58
6091,439,26.52
6092,422,19.93
6093,448,19.58
6094,436,17.52
6095,448,18.26
6096,449,5.32
6097,451,26.52
6098,403,19.93
6099,448,26.52
6100,447,15.84
6101,415,5.32
6102,447,19.58
6103,446,19.91
6104,446,21.93
6105,428,19.93
6106,419,19.93
6107,420,19.58
6108,403,19.58
6109,405,0.0
6110,448,19.58
6111,418,19.93
6112,422,4.9
6113,452,12.04
6114,446,5.32
6115,438,19.58
6116,449,19.93
6117,427,19.91
6118,452,19.93
6119,448,19.58
6120,449,5.32
6121,447,5.32
6122,445,24.99
6123,447,4.9
6124,450,5.32
6125,446,0.2
6126,438,19.93
6127,234,19.58
6128,409,19.93
6129,410,5.48
6130,449,24.98
6131,434,19.58
6132,447,19.58
6133,253,19.58
6134,235,7.3
6135,447,19.58
6136,425,5.32
6137,446,12.05
6138,412,5.32
6139,405,18.2
6140,405,26.66
6141,432,19.91
6142,424,0.0
6143,411,19.58
6144,370,14.9
6145,322,5.32
6146,451,19.93
6147,445,19.58
6148,450,5.32
6149,403,19.32
6150,406,19.58
6151,452,24.27
6152,416,10.4
6153,451,19.58
6154,448,19.88
6155,452,20.04
6156,427,19.58
6157,219,19.91
6158,417,27.76
6159,439,26.64
6160,441,19.9
6161,449,5.32
6162,451,14.9
6163,454,19.93
6164,447,26.64
6165,448,24.98
6166,456,19.58
6167,450,19.58
6168,421,20.05
6169,451,19.58
6170,441,5.38
6171,412,19.91
6172,430,10.4
6173,442,27.76
6174,433,4.93
6175,440,27.76
6176,433,17.52
6177,447,5.32
6178,429,5.32
6179,434,5.32
6180,449,19.58
6181,451,5.32
6182,448,19.93
6183,429,12.05
6184,439,5.32
6185,446,26.55
6186,448,17.71
6187,455,19.92
6188,448,5.32
6189,448,24.98
6190,452,19.58
6191,413,4.9
6192,411,5.32
6193,416,5.32
6194,408,27.76
6195,443,5.32
6196,453,19.58
6197,450,19.9
6198,406,19.58
6199,435,14.9
6200,408,19.58
6201,441,5.32
6202,435,2.01
6203,448,26.64
6204,448,4.93
6205,450,24.99
6206,441,0.2
6207,451,5.32
6208,445,5.32
6209,447,19.92
6210,450,19.58
6211,448,4.9
6212,405,19.58
6213,448,5.32
6214,449,5.99
6215,424,19.58
6216,437,19.58
6217,410,19.93
6218,268,15.84
6219,437,19.3
6220,404,26.58
6221,404,5.32
6222,267,5.32
6223,348,5.32
6224,429,26.66
6225,233,10.4
6226,433,19.91
6227,441,19.58
6228,431,0.0
6229,450,24.26
6230,448,19.58
6231,434,19.58
6232,444,19.91
6233,452,19.91
6234,439,27.76
6235,450,5.32
6236,425,24.99
6237,293,5.32
6238,265,19.91
6239,239,5.48
6240,435,19.9
6241,409,18.26
6242,411,26.52
6243,410,5.32
6244,412,21.93
6245,412,5.38
6246,453,19.93
6247,407,24.98
6248,412,5.32
6249,406,19.58
6250,420,26.64
6251,447,26.64
6252,242,5.38
6253,243,19.58
6254,417,5.32
6255,448,5.32
6256,449,19.26
6257,448,26.64
6258,447,19.58
6259,449,19.91
6260,450,19.93
6261,416,5.48
6262,447,19.58
6263,445,19.93
6264,458,19.91
6265,430,2.45
6266,420,0.02
6267,410,4.9
6268,423,19.93
6269,433,19.58
6270,432,0.0
6271,413,5.32
6272,356,24.98
6273,223,0.21
6274,426,19.91
6275,438,19.92
6276,448,2.45
6277,456,19.93
6278,448,19.3
6279,427,19.32
6280,434,19.58
6281,408,2.45
6282,342,26.56
6283,458,18.2
6284,446,19.93
6285,411,24.98
6286,405,19.91
6287,412,5.32
6288,415,26.66
6289,409,19.58
6290,453,19.58
6291,479,5.32
6292,411,19.91
6293,412,26.66
6294,415,26.56
6295,408,14.41
6296,411,5.38
6297,405,19.58
6298,405,5.32
6299,310,0.0
6300,427,5.32
6301,426,19.91
6302,448,5.32
6303,441,5.48
6304,407,19.93
6305,419,19.9
6306,443,19.93
6307,453,26.58
6308,453,5.32
6309,403,20.04
6310,417,26.57
6311,447,19.58
6312,447,5.32
6313,419,19.58
6314,410,14.7
6315,404,19.58
6316,445,19.58
6317,426,5.48
6318,457,0.03
6319,449,2.01
6320,451,5.32
6321,211,5.32
6322,428,19.58
6323,426,19.91
6324,426,5.32
6325,415,5.32
6326,451,19.58
6327,433,19.58
6328,222,5.32
6329,426,19.58
6330,434,19.58
6331,450,5.38
6332,449,5.32
6333,430,5.32
6334,441,5.38
6335,435,5.32
6336,449,19.58
6337,451,24.98
6338,450,5.38
6339,447,5.99
6340,446,26.56
6341,447,5.38
6342,446,19.58
6343,456,19.58
6344,448,5.32
6345,416,5.32
6346,411,19.93
6347,450,24.99
6348,453,14.7
6349,413,19.58
6350,409,10.4
6351,427,5.32
6352,247,19.58
6353,431,0.2
6354,426,0.0
6355,428,19.58
6356,447,19.58
6357,439,19.58
6358,441,19.91
6359,203,5.32
6360,424,19.58
6361,244,0.0
6362,426,19.58
6363,428,5.32
6364,426,19.93
6365,454,19.3
6366,431,19.93
6367,439,0.0
6368,451,19.58
6369,437,19.58
6370,497,26.56
6371,449,27.76
6372,413,19.9
6373,463,19.58
6374,403,5.32
6375,409,19.91
6376,433,19.58
6377,407,19.93
6378,406,19.58
6379,429,5.32
6380,415,19.58
6381,441,26.66
6382,410,19.58
6383,410,19.58
6384,438,26.64
6385,441,5.32
6386,449,10.4
6387,450,12.04
6388,348,26.52
6389,427,19.31
6390,403,5.32
6391,447,26.51
6392,450,5.32
6393,411,0.0
6394,437,5.32
6395,406,5.32
6396,433,5.32
6397,424,26.66
6398,434,19.3
6399,454,19.58
6400,408,21.93
6401,436,5.32
6402,450,5.32
6403,409,19.58
6404,425,5.32
6405,428,5.32
6406,433,0.21
6407,431,19.93
6408,437,19.93
6409,441,5.32
6410,406,2.01
6411,424,26.54
6412,437,19.58
6413,431,19.33
6414,449,19.93
6415,448,5.32
6416,446,19.58
6417,457,5.32
6418,424,5.32
6419,449,19.58
6420,451,19.58
6421,415,5.48
6422,436,19.3
6423,438,5.32
6424,442,5.32
6425,406,19.93
6426,416,5.32
6427,412,19.93
6428,403,26.64
6429,406,2.45
6430,423,19.58
6431,428,14.9
6432,411,14.41
6433,441,5.99
6434,458,19.58
6435,442,5.32
6436,404,19.91
6437,453,5.32
6438,446,26.56
6439,437,19.58
6440,403,27.76
6441,449,18.37
6442,451,2.45
6443,418,10.4
6444,414,5.32
6445,428,19.58
6446,451,26.54
6447,451,19.58
6448,451,19.93
6449,448,19.58
6450,417,24.99
6451,405,19.9
6452,203,5.32
6453,427,19.58
6454,439,27.3
6455,426,19.58
6456,426,10.4
6457,99,12.05
6458,96,19.3
6459,456,26.66
6460,425,19.58
6461,434,24.99
6462,452,19.58
6463,448,5.32
6464,454,19.58
6465,456,5.32
6466,433,5.32
6467,446,18.37
6468,451,7.3
6469,418,26.52
6470,448,14.9
6471,449,19.58
6472,407,19.58
6473,416,0.0
6474,413,21.93
6475,406,19.31
6476,439,19.93
6477,438,19.93
6478,440,5.32
6479,428,24.99
6480,432,19.48
6481,448,15.84
6482,450,19.58
6483,443,5.32
6484,460,19.32
6485,454,19.91
6486,445,4.9
6487,454,5.32
6488,452,19.58
6489,405,5.32
6490,440,19.93
6491,441,24.99
6492,448,19.58
6493,455,19.93
6494,415,19.32
6495,407,27.76
6496,425,19.58
6497,201,5.32
6498,458,15.84
6499,407,5.32
6500,418,19.58
6501,452,19.91
6502,450,19.58
6503,121,19.93
6504,97,19.58
6505,446,5.32
6506,447,19.91
6507,440,5.48
6508,448,19.58
6509,428,5.32
6510,427,5.32
6511,449,5.32
6512,425,19.93
6513,408,2.45
6514,427,19.58
6515,438,19.32
6516,447,19.93
6517,448,5.32
6518,400,19.58
6519,430,19.93
6520,449,19.3
6521,455,19.58
6522,448,5.32
6523,452,19.9
6524,402,26.66
6525,425,26.64
6526,416,18.37
6527,405,24.99
6528,408,27.76
6529,407,19.48
6530,406,12.05
6531,406,19.58
6532,401,24.98
6533,439,24.98
6534,434,19.58
6535,448,4.9
6536,450,19.9
6537,449,5.48
6538,446,19.58
6539,450,5.32
6540,441,24.98
6541,449,19.58
6542,446,17.59
6543,450,5.32
6544,436,5.32
6545,450,19.3
6546,453,19.58
6547,417,19.58
6548,407,19.93
6549,448,5.32
6550,405,19.58
6551,429,19.3
6552,430,19.3
6553,427,5.32
6554,403,24.99
6555,427,19.92
6556,405,19.58
6557,211,19.91
6558,325,0.03
6559,426,5.32
6560,446,14.7
6561,436,19.58
6562,451,19.93
6563,448,21.93
6564,420,18.37
6565,443,19.91
6566,447,21.93
6567,414,0.21
6568,431,27.76
6569,426,19.26
6570,440,19.58
6571,447,26.64
6572,460,26.64
6573,158,26.58
6574,421,19.93
6575,407,24.27
6576,438,5.32
6577,404,14.7
6578,406,19.58
6579,435,26.51
6580,184,19.58
6581,448,19.9
6582,440,19.91
6583,450,19.58
6584,426,5.32
6585,430,6.43
6586,450,19.58
6587,442,19.92
6588,436,26.64
6589,449,24.98
6590,448,5.32
6591,448,24.26
6592,447,19.58
6593,452,19.93
6594,450,24.98
6595,452,5.32
6596,439,24.98
6597,410,5.32
6598,404,19.93
6599,402,19.58
6600,439,19.93
6601,409,19.58
6602,414,19.58
6603,418,27.76
6604,407,5.32
6605,403,5.32
6606,422,19.58
6607,425,19.93
6608,403,5.32
6609,427,19.58
6610,409,19.93
6611,431,19.93
6612,449,19.9
6613,427,19.93
6614,435,26.64
6615,452,12.04
6616,430,24.99
6617,435,19.58
6618,451,5.32
6619,448,19.58
6620,451,10.4
6621,452,5.32
6622,452,5.32
6623,452,19.58
6624,449,5.32
6625,445,7.93
6626,434,5.32
6627,413,19.91
6628,410,19.31
6629,444,12.05
6630,411,19.58
6631,405,14.41
6632,114,26.66
6633,426,19.93
6634,199,26.58
6635,426,26.56
6636,449,19.58
6637,211,19.94
6638,424,19.93
6639,454,5.32
6640,448,26.51
6641,447,14.9
6642,451,5.38
6643,450,5.32
6644,453,5.32
6645,450,19.58
6646,449,19.92
6647,447,19.93
6648,449,19.88
6649,451,19.93
6650,431,19.93
6651,407,19.93
6652,453,27.76
6653,406,19.58
6654,409,19.58
6655,412,5.32
6656,413,19.58
6657,404,19.94
6658,469,19.91
6659,449,26.64
6660,441,19.31
6661,452,14.9
6662,438,19.9
6663,116,19.58
6664,425,24.98
6665,443,26.56
6666,450,5.32
6667,442,5.32
6668,447,5.32
6669,452,19.58
6670,406,19.58
6671,427,19.93
6672,454,19.58
6673,457,5.32
6674,450,27.76
6675,467,5.48
6676,449,5.32
6677,412,19.58
6678,423,4.9
6679,451,19.58
6680,414,19.9
6681,422,19.58
6682,260,19.58
6683,410,5.32
6684,292,19.9
6685,424,19.58
6686,358,5.32
6687,447,19.93
6688,429,19.58
6689,438,19.94
6690,429,19.58
6691,449,5.32
6692,440,19.58
6693,466,5.32
6694,438,26.54
6695,417,10.68
6696,449,19.58
6697,448,19.91
6698,453,19.58
6699,406,19.93
6700,414,27.76
6701,235,27.76
6702,436,24.98
6703,426,19.58
6704,450,26.66
6705,447,19.58
6706,450,19.35
6707,165,5.32
6708,185,27.76
6709,451,19.93
6710,451,19.93
6711,446,19.31
6712,449,19.93
6713,274,5.32
6714,275,4.93
6715,438,5.32
6716,436,26.66
6717,426,19.58
6718,449,19.48
6719,448,19.58
6720,452,5.32
6721,447,19.32
6722,448,27.77
6723,252,19.58
6724,446,4.9
6725,444,5.32
6726,404,19.58
6727,420,19.58
6728,404,7.3
6729,404,19.58
6730,404,5.32
6731,453,5.32
6732,416,19.58
6733,421,19.91
6734,444,19.58
6735,449,19.58
6736,448,18.2
6737,448,4.9
6738,449,4.9
6739,242,0.0
6740,454,19.58
6741,449,19.58
6742,449,27.76
6743,433,21.83
6744,407,19.32
6745,454,19.58
6746,448,19.58
6747,441,5.32
6748,454,0.0
6749,494,19.93
6750,404,5.32
6751,454,19.93
6752,416,5.32
6753,220,19.33
6754,432,19.31
6755,354,5.32
6756,428,5.32
6757,434,24.27
6758,427,19.93
6759,412,19.33
6760,443,19.58
6761,450,4.9
6762,435,27.72
6763,436,19.58
6764,453,19.93
6765,449,19.58
6766,447,19.58
6767,405,19.9
6768,421,26.52
6769,447,5.32
6770,407,26.66
6771,405,19.58
6772,453,19.58
6773,443,19.58
6774,452,27.76
6775,419,19.3
6776,426,2.45
6777,296,0.0
6778,425,5.32
6779,221,15.84
6780,119,19.91
6781,449,5.32
6782,240,24.99
6783,448,19.91
6784,446,19.91
6785,448,19.93
6786,449,5.32
6787,446,26.56
6788,454,19.58
6789,447,19.93
6790,455,19.91
6791,437,5.32
6792,448,5.32
6793,418,5.32
6794,405,5.32
6795,406,19.93
6796,419,5.32
6797,414,5.32
6798,105,12.05
6799,405,4.9
6800,129,27.76
6801,427,19.58
6802,427,5.32
6803,94,19.92
6804,427,4.9
6805,429,26.56
6806,438,24.27
6807,429,19.58
6808,436,19.3
6809,450,19.58
6810,442,19.58
6811,450,26.64
6812,446,5.32
6813,449,26.58
6814,448,10.4
6815,450,18.2
6816,448,19.58
6817,132,5.32
6818,442,19.58
6819,410,5.32
6820,433,5.48
6821,442,19.91
6822,409,19.91
6823,431,5.32
6824,265,5.32
6825,416,5.32
6826,336,10.4
6827,447,19.58
6828,408,19.3
6829,418,5.32
6830,446,18.37
6831,426,19.91
6832,433,18.37
6833,436,5.32
6834,452,5.32
6835,462,19.58
6836,440,19.58
6837,445,5.32
6838,447,10.4
6839,452,5.32
6840,447,26.64
6841,432,19.58
6842,406,19.58
6843,450,26.55
6844,448,24.98
6845,438,5.32
6846,416,19.58
6847,407,7.3
6848,411,5.99
6849,431,19.58
6850,418,26.58
6851,412,19.58
6852,402,5.32
6853,409,19.93
6854,255,26.65
6855,427,5.32
6856,341,19.91
6857,427,19.58
6858,436,5.32
6859,453,5.32
6860,436,21.93
6861,450,26.64
6862,446,19.58
6863,447,0.15
6864,447,5.32
6865,447,26.56
6866,486,19.58
6867,453,14.41
6868,437,19.58
6869,406,17.71
6870,405,26.54
6871,383,19.58
6872,437,5.99
6873,413,19.3
6874,404,5.32
6875,441,19.93
6876,435,19.91
6877,444,24.98
6878,428,19.91
6879,448,19.58
6880,405,5.32
6881,213,19.35
6882,171,26.63
6883,447,5.32
6884,450,19.92
6885,434,5.32
6886,449,5.32
6887,425,19.93
6888,448,19.91
6889,442,19.91
6890,404,19.58
6891,449,19.93
6892,456,19.58
6893,407,10.4
6894,404,21.15
6895,426,5.48
6896,406,0.22
6897,424,19.58
6898,431,19.58
6899,427,17.71
6900,431,19.58
6901,441,19.58
6902,453,5.32
6903,412,26.57
6904,442,19.93
6905,450,18.26
6906,450,5.32
6907,441,19.58
6908,441,19.58
6909,445,5.32
6910,437,19.9
6911,432,19.91
6912,437,19.58
6913,405,12.05
6914,439,5.32
6915,435,19.58
6916,451,24.99
6917,449,26.56
6918,406,5.48
6919,437,19.9
6920,445,19.93
6921,452,5.32
6922,439,14.27
6923,446,19.58
6924,420,19.9
6925,435,21.15
6926,438,19.93
6927,450,5.32
6928,452,27.76
6929,456,5.32
6930,452,19.93
6931,457,27.76
6932,448,19.92
6933,421,5.32
6934,408,5.32
6935,468,19.58
6936,417,19.58
6937,421,19.58
6938,419,5.32
6939,427,19.58
6940,455,26.54
6941,451,15.84
6942,437,5.48
6943,418,26.54
6944,420,19.93
6945,434,24.98
6946,439,5.32
6947,401,10.4
6948,449,19.58
6949,447,14.7
6950,449,19.58
6951,455,5.32
6952,407,26.64
6953,449,19.93
6954,450,5.32
6955,441,19.3
6956,454,19.3
6957,450,19.9
6958,454,27.76
6959,447,19.58
6960,410,5.32
6961,405,19.58
6962,406,19.9
6963,405,5.32
6964,437,5.32
6965,448,5.32
6966,405,19.32
6967,406,19.58
6968,442,19.58
6969,410,5.32
6970,46,19.94
6971,433,26.66
6972,452,5.48
6973,96,19.58
6974,427,24.99
6975,416,19.91
6976,408,19.93
6977,457,10.4
6978,447,19.58
6979,457,5.32
6980,161,19.58
6981,427,26.51
6982,415,19.58
6983,441,19.9
6984,404,24.99
6985,441,4.9
6986,405,26.64
6987,449,19.58
6988,435,5.32
6989,81,19.58
6990,427,19.58
6991,405,17.71
6992,408,19.3
6993,434,19.31
6994,425,5.32
6995,449,4.9
6996,446,26.51
6997,409,14.41
6998,448,24.98
6999,447,11.34
7000,445,19.91
7001,451,26.66
7002,434,19.93
7003,411,19.9
7004,453,19.91
7005,449,19.58
7006,425,19.5
7007,438,2.45
7008,425,19.91
7009,416,24.99
7010,186,5.32
7011,451,5.32
7012,450,5.32
7013,150,19.93
7014,144,5.32
7015,445,19.9
7016,448,19.91
7017,284,19.93
7018,426,26.64
7019,453,19.93
7020,453,15.84
7021,442,19.58
7022,454,4.9
7023,449,5.32
7024,459,5.32
7025,449,5.32
7026,406,19.58
7027,445,19.59
7028,408,5.48
7029,447,19.58
7030,444,19.58
7031,405,21.93
7032,409,26.66
7033,405,26.52
7034,404,19.58
7035,206,19.5
7036,426,19.58
7037,451,19.58
7038,123,24.99
7039,426,19.93
7040,421,26.56
7041,427,26.66
7042,441,5.32
7043,438,5.32
7043,427,19.31
7045,442,5.32
7046,437,7.3
7047,451,5.32
7048,447,19.93
7049,452,19.93
7050,449,5.32
7051,482,19.58
7052,453,19.91
7053,448,19.32
7054,404,19.93
7055,429,19.9
7056,408,19.31
7057,442,19.31
7058,405,19.9
7059,429,2.45
7060,407,5.32
7061,253,19.58
7062,427,19.93
7063,450,5.32
7064,127,19.58
7065,158,19.5
7066,182,19.93
7067,442,19.91
7068,436,19.91
7069,433,5.32
7070,451,19.93
7071,134,19.93
7072,442,19.91
7073,450,5.32
7074,438,19.58
7075,447,19.58
7076,448,19.58
7077,450,5.32
7078,456,0.21
7079,403,19.58
7080,404,26.57
7081,439,26.66
7082,418,5.32
7083,409,5.48
7084,413,19.58
7085,408,10.4
7086,280,5.32
7087,193,19.91
7088,288,19.91
7089,426,19.91
7090,425,5.32
7091,459,19.58
7092,450,26.55
7093,450,14.7
7094,427,12.04
7095,425,5.32
7096,434,27.29
7097,446,5.32
7098,451,19.58
7099,448,5.32
7100,450,12.05
7101,447,19.33
7102,447,19.91
7103,448,5.32
7104,451,19.91
7105,425,19.9
7106,402,19.93
7107,424,5.32
7108,420,19.58
7109,405,26.57
7110,427,19.58
7111,407,24.98
7112,405,26.56
7113,427,19.88
7114,449,5.32
7115,448,5.32
7116,449,19.91
7117,456,19.58
7118,429,5.32
7119,149,5.32
7120,448,14.9
7121,432,5.32
7122,425,17.7
7123,431,19.93
7124,413,26.53
7125,449,19.91
7126,452,5.32
7127,446,19.93
7128,438,19.58
7129,405,5.32
7130,406,5.32
7131,447,24.98
7132,448,26.52
7133,411,5.32
7134,452,19.9
7135,451,21.93
7136,430,19.3
7137,400,19.9
7138,409,18.2
7139,434,5.32
7140,419,27.75
7141,421,24.27
7142,315,19.93
7143,437,24.27
7144,430,5.32
7145,435,19.58
7146,449,19.31
7147,434,5.32
7148,407,19.91
7149,405,19.58
7150,261,26.65
7151,446,19.93
7152,443,5.99
7153,452,26.64
7154,451,19.58
7155,449,14.9
7156,448,26.52
7157,448,5.32
7158,417,4.9
7159,452,5.32
7160,453,19.91
7161,449,19.58
7162,456,19.58
7163,409,5.32
7164,214,19.58
7165,405,5.32
7166,410,19.58
7167,175,5.32
7168,407,19.93
7169,483,5.32
7170,441,0.2
7171,428,19.91
7172,268,26.52
7173,177,14.7
7174,453,5.32
7175,448,27.76
7176,436,19.58
7177,423,19.93
7178,222,5.32
7179,427,19.91
7180,413,26.64
7181,468,24.98
7182,447,4.93
7183,154,18.2
7184,453,19.58
7185,450,18.37
7186,472,5.32
7187,413,19.91
7188,423,19.58
7189,215,19.58
7190,426,19.93
7191,426,5.32
7192,476,19.58
7193,425,26.58
7194,452,0.22
7195,447,18.26
7196,448,5.32
7197,427,17.71
7198,450,19.88
7199,450,26.64
7200,448,19.58
7201,452,5.32
7202,447,19.91
7203,453,5.32
7204,447,19.58
7205,446,19.58
7206,427,19.9
7207,408,26.65
7208,154,5.32
7209,270,2.45
7210,445,24.98
7211,450,19.58
7212,448,19.58
7213,425,5.32
7214,435,19.58
7215,205,19.58
7216,237,19.3
7217,447,19.58
7218,444,26.51
7219,407,5.32
7220,449,21.93
7221,409,4.9
7222,188,14.9
7223,446,26.56
7224,451,5.32
7225,455,5.32
7226,452,5.32
7227,415,24.99
7228,433,19.31
7229,411,10.4
7230,410,19.58
7231,412,19.93
7232,455,19.58
7233,465,26.65
7234,272,19.93
7235,246,5.32
7236,458,2.45
7237,404,5.32
7238,435,5.32
7239,407,5.32
7240,421,19.26
7241,443,0.01
7242,428,19.9
7243,449,19.58
7244,449,18.2
7245,450,19.58
7246,447,27.76
7247,445,19.58
7248,448,0.03
7249,447,19.93
7250,444,26.58
7251,442,19.91
7252,422,16.71
7253,414,5.69
7254,457,5.32
7255,409,5.32
7256,279,5.32
7257,171,19.93
7258,412,4.9
7259,185,27.76
7260,435,5.32
7261,439,19.58
7262,431,5.32
7263,439,5.99
7264,408,19.93
7265,410,19.58
7266,420,19.93
7267,448,5.48
7268,450,5.32
7269,413,19.58
7270,427,5.32
7271,439,14.7
7272,430,27.74
7273,403,19.58
7274,451,19.58
7275,461,5.32
7276,407,19.58
7277,412,19.92
7278,243,19.93
7279,342,19.93
7280,214,26.65
7281,427,19.58
7282,440,24.98
7283,450,5.32
7284,449,26.52
7285,450,19.58
7286,174,19.9
7287,425,27.74
7288,424,5.32
7289,433,19.93
7290,449,5.32
7291,450,19.91
7292,437,5.32
7293,449,19.58
7294,451,19.93
7295,429,5.32
7296,448,26.56
7297,446,0.01
7298,448,19.93
7299,411,19.91
7300,405,19.58
7301,425,5.32
7302,413,18.26
7303,404,19.58
7304,427,24.98
7305,411,19.58
7306,408,12.05
7307,6,19.58
7308,22,5.32
7309,427,19.3
7310,426,19.58
7311,69,19.9
7312,434,5.32
7313,453,5.32
7314,465,19.59
7315,450,5.48
7316,448,5.32
7317,449,19.93
7318,448,19.93
7319,448,5.32
7320,454,19.93
7321,441,19.93
7322,426,26.58
7323,449,5.32
7324,446,0.03
7325,461,5.32
7326,431,19.91
7327,440,5.48
7328,428,19.58
7329,410,19.58
7330,450,19.58
7331,452,5.32
7332,442,5.32
7333,435,19.93
7334,428,2.45
7335,180,26.52
7336,429,19.88
7337,451,5.48
7338,432,5.48
7339,435,26.66
7340,421,19.58
7341,449,19.88
7342,447,10.4
7343,441,19.3
7344,441,5.32
7345,449,26.56
7346,405,5.32
7347,409,19.58
7348,454,5.32
7349,429,19.58
7350,43,19.3
7351,409,19.58
7352,420,19.9
7353,449,19.58
7354,432,26.64
7355,105,19.31
7356,452,19.3
7357,449,19.9
7358,455,19.93
7359,450,26.54
7360,426,19.9
7361,451,24.99
7362,451,19.58
7363,454,19.93
7364,448,5.32
7365,444,19.58
7366,456,19.58
7367,448,19.92
7368,409,5.32
7369,406,19.58
7370,404,19.31
7371,96,19.58
7372,437,13.08
=======
0,25,10.14
1,88,10.13
2,204,10.07
3,190,10.13
4,169,10.07
5,42,10.12
6,254,10.09
7,70,10.09
8,392,10.12
9,160,10.1
10,241,10.1
11,228,10.1
12,97,10.11
13,247,10.11
14,127,10.1
15,148,10.1
16,233,10.1
17,144,10.12
18,120,10.1
19,274,10.13
20,276,10.1
21,67,10.11
22,113,10.12
23,8,10.09
24,23,10.11
25,113,10.1
26,111,10.1
27,408,10.1
28,80,10.1
29,187,10.09
30,145,10.12
31,231,10.1
32,267,10.1
33,330,10.09
34,76,10.11
35,282,10.09
36,203,10.09
37,407,10.1
38,99,10.11
39,149,10.09
40,303,10.11
41,364,10.12
42,83,10.12
43,115,10.11
44,165,10.11
45,273,10.1
46,300,10.09
47,171,10.1
48,112,10.12
49,295,10.09
50,231,10.09
51,265,10.12
52,267,10.1
53,293,10.09
54,81,10.13
55,89,10.1
56,0,10.1
57,329,10.09
58,143,10.11
59,120,10.11
60,337,10.11
61,99,10.09
62,53,10.1
63,288,10.1
64,183,10.1
65,358,10.1
66,104,10.09
67,234,10.09
68,230,10.11
69,145,10.11
70,196,10.11
71,112,10.09
72,209,10.09
73,255,10.07
74,222,10.11
75,67,10.11
76,315,10.09
77,324,10.14
78,155,10.12
79,245,10.09
80,388,10.1
81,129,10.11
82,205,10.1
83,135,10.11
84,0,10.09
85,284,10.11
86,270,10.1
87,66,10.1
88,201,10.12
89,37,10.11
90,87,10.11
91,228,10.1
92,360,10.09
93,105,10.12
94,388,10.13
95,226,10.11
96,76,10.11
97,318,10.1
98,272,10.11
99,141,10.11
100,74,10.11
101,0,10.11
102,150,10.09
103,284,10.11
104,369,10.08
105,44,10.13
106,250,10.1
107,380,10.13
108,392,10.11
109,108,10.11
110,179,10.1
111,173,10.11
112,219,10.11
113,248,10.1
114,26,10.12
115,208,10.11
116,362,10.1
117,124,10.1
118,406,10.11
119,197,10.1
120,201,10.09
121,82,10.11
122,166,10.11
123,260,10.11
124,402,10.09
125,258,10.1
126,130,10.09
127,297,10.1
128,231,10.08
129,283,10.13
130,301,10.07
131,384,10.1
132,206,10.11
133,91,10.1
134,30,10.11
135,6,10.09
136,199,10.09
137,348,10.1
138,69,10.1
139,265,10.12
140,191,10.09
141,101,10.11
142,391,10.1
143,275,10.11
144,88,10.11
145,43,10.12
146,290,10.11
147,232,10.11
148,122,10.09
149,200,10.1
150,385,10.12
151,151,10.1
152,88,10.1
153,0,10.13
154,320,10.13
155,203,10.08
156,145,10.12
157,292,10.12
158,272,10.12
159,287,10.12
160,165,10.11
161,165,10.09
162,237,10.11
163,103,10.12
164,132,10.12
165,204,10.12
166,140,10.11
167,100,10.12
168,166,10.1
169,99,10.12
170,96,10.13
171,334,10.12
172,142,10.12
173,237,10.09
174,345,10.11
175,87,10.1
176,210,10.13
177,217,10.12
178,128,10.11
179,392,10.1
180,189,10.09
181,89,10.12
182,292,10.11
183,215,10.1
184,113,10.1
185,287,10.12
186,128,10.12
187,122,10.08
188,145,10.1
189,264,10.1
190,177,10.11
191,267,10.1
192,244,10.11
193,106,10.1
194,266,10.12
195,310,10.12
196,207,10.09
197,137,10.12
198,201,10.09
199,256,10.11
200,213,10.13
201,305,10.13
202,205,10.08
203,17,10.12
204,25,10.09
205,262,10.12
206,283,10.11
207,166,10.1
208,119,10.14
209,62,10.13
210,54,10.12
211,256,10.09
212,223,10.12
213,137,10.13
214,58,10.09
215,289,10.09
216,268,10.12
217,347,10.19
218,60,10.06
219,250,10.12
220,323,10.08
221,124,10.09
222,122,10.11
223,97,10.1
224,131,10.1
225,369,10.12
226,301,10.08
227,55,10.1
228,296,10.12
229,268,10.09
230,73,10.11
231,390,10.1
232,173,10.11
233,31,10.14
234,295,10.11
235,304,10.12
236,258,10.09
237,284,10.18
238,280,10.12
239,154,10.09
240,38,10.1
241,266,10.12
242,114,10.12
243,318,10.12
243,134,10.11
245,234,10.11
246,268,10.12
247,212,10.09
248,113,10.11
249,248,10.09
250,161,10.15
251,135,10.1
252,264,10.1
253,75,10.12
254,81,10.11
255,191,10.11
256,360,10.1
257,180,10.11
258,42,10.13
259,186,10.11
260,219,10.1
261,142,10.11
262,130,10.11
263,189,10.1
264,234,10.13
265,119,10.1
266,105,10.12
267,219,10.12
268,224,10.12
269,216,10.11
270,292,10.1
271,270,10.11
272,324,10.13
273,374,10.11
274,347,10.11
275,181,10.1
276,175,10.1
277,58,10.11
278,242,10.12
279,224,10.11
280,118,10.1
281,369,10.1
282,119,10.11
283,163,10.11
284,16,10.11
285,124,10.12
286,125,10.1
287,28,10.12
288,309,10.12
289,269,10.11
290,282,10.1
291,161,10.1
292,127,10.12
293,5,10.1
294,180,10.1
295,186,10.11
296,294,10.12
297,173,10.1
298,252,10.11
299,121,10.11
300,296,10.11
301,309,10.11
302,388,10.11
303,303,10.11
304,80,10.11
305,40,10.13
306,263,10.1
307,142,10.1
308,97,10.11
309,320,10.12
310,331,10.11
311,155,10.11
312,119,10.12
313,23,10.11
314,168,10.12
315,161,10.1
316,64,10.09
317,295,10.11
318,77,10.1
319,135,10.1
320,232,10.12
321,78,10.1
322,70,10.12
323,300,10.11
324,264,10.12
325,302,10.12
326,71,10.1
327,13,10.11
328,170,10.11
329,268,10.11
330,264,10.11
331,163,10.12
332,123,10.11
333,217,10.1
334,319,10.12
335,38,10.13
336,53,10.1
337,176,10.1
338,240,10.08
339,157,10.1
340,216,10.11
341,358,10.1
342,281,10.1
343,155,10.13
344,0,10.14
345,270,10.13
346,79,10.1
347,301,10.13
348,300,10.1
349,103,10.12
350,245,10.11
351,216,10.12
352,55,10.12
353,312,10.11
354,173,10.13
355,18,10.13
356,194,10.09
357,137,10.11
358,32,10.11
359,335,10.1
360,284,10.11
361,89,10.1
362,81,10.1
363,245,10.1
364,335,10.12
365,306,10.12
366,93,10.12
367,189,10.09
368,235,10.11
369,28,10.13
370,261,10.1
371,130,10.12
372,191,10.11
373,212,10.09
374,370,10.1
375,163,10.09
376,165,10.1
377,223,10.12
378,287,10.09
379,280,10.13
380,149,10.12
381,185,10.11
382,133,10.1
383,214,10.1
384,233,10.11
385,22,10.12
386,146,10.06
387,91,10.13
388,141,10.09
389,192,10.1
390,355,10.09
391,71,10.11
392,101,10.12
393,182,10.11
394,107,10.13
395,172,10.1
396,207,10.09
397,170,10.12
398,353,10.09
399,22,10.12
400,157,10.12
401,203,10.09
402,75,10.11
403,144,10.11
404,179,10.1
405,223,10.11
406,71,10.1
407,328,10.08
408,238,10.11
409,302,10.12
410,141,10.11
411,116,10.11
412,252,10.11
413,258,10.1
414,283,10.12
415,149,10.1
416,294,10.1
417,146,10.09
418,17,10.09
419,285,10.07
420,107,10.1
421,219,10.1
422,253,10.09
423,271,10.13
424,103,10.08
425,162,10.12
426,215,10.09
427,60,10.12
428,50,10.11
429,365,10.11
430,137,10.11
431,324,10.12
432,287,10.09
433,225,10.12
434,166,10.12
435,36,10.12
436,232,10.1
437,216,10.1
438,240,10.12
439,375,10.11
440,302,10.09
441,225,10.15
442,226,10.05
443,137,10.07
444,169,10.11
445,15,10.13
446,182,10.12
447,315,10.14
448,49,10.16
449,150,10.12
450,172,10.11
451,256,10.12
452,367,10.11
453,290,10.1
454,192,10.1
455,75,10.1
456,274,10.1
457,193,10.1
458,83,10.11
459,22,10.1
460,232,10.1
461,257,10.09
462,169,10.11
463,339,10.11
464,290,10.11
465,288,10.12
466,128,10.13
467,303,10.1
468,113,10.11
469,126,10.11
470,287,10.1
471,256,10.11
472,140,10.11
473,238,10.12
474,101,10.12
475,335,10.11
476,222,10.11
477,27,10.1
478,216,10.13
479,81,10.11
480,294,10.11
481,308,10.13
482,175,10.12
483,63,10.11
484,15,10.1
485,165,10.11
486,220,10.1
487,329,10.11
488,86,10.1
489,186,10.08
490,316,10.12
491,56,10.18
491,314,10.05
493,293,10.18
494,54,10.05
495,243,10.14
496,206,10.07
497,177,10.14
498,259,10.13
499,119,10.09
500,53,10.09
501,125,10.11
502,380,10.11
503,242,10.13
504,72,10.1
505,213,10.1
506,78,10.11
507,174,10.11
508,175,10.12
509,183,10.15
510,237,10.07
511,152,10.13
512,230,10.08
513,224,10.11
514,98,10.12
515,95,10.08
516,14,10.13
517,266,10.09
518,261,10.13
519,204,10.1
520,92,10.12
521,313,10.1
522,205,10.13
523,73,10.11
524,213,10.1
525,30,10.12
526,324,10.1
527,315,10.08
528,216,10.1
529,277,10.12
530,110,10.11
531,139,10.1
532,228,10.17
533,92,10.12
534,103,10.1
535,372,10.13
536,105,10.11
537,303,10.11
538,224,10.09
539,127,10.12
540,0,10.08
541,185,10.13
542,187,9.98
543,34,10.16
544,138,10.06
545,165,10.15
546,275,10.09
547,378,10.16
548,345,10.08
549,359,10.11
550,83,10.11
551,185,10.13
552,367,10.1
553,252,10.11
554,23,10.09
555,386,10.1
556,201,10.11
557,278,10.11
558,242,10.09
559,187,10.09
560,95,10.1
561,70,10.12
562,46,10.12
563,279,10.1
564,119,10.11
565,120,10.12
566,228,10.1
567,79,10.11
568,143,10.1
569,99,10.16
570,258,10.04
571,81,10.16
572,307,10.09
573,303,10.13
574,118,10.09
575,87,10.12
576,258,10.09
577,53,10.1
578,341,10.09
579,250,10.11
580,389,10.1
581,41,10.1
582,192,10.09
583,351,10.11
584,29,10.11
585,99,10.09
586,134,10.1
587,0,10.1
588,319,10.1
589,327,10.11
590,182,10.11
591,93,10.12
592,38,10.11
593,229,10.13
594,152,10.11
595,268,10.08
596,134,10.13
597,239,10.1
598,259,10.1
599,269,10.1
600,343,10.11
601,96,10.09
602,269,10.11
603,67,10.12
604,304,10.1
605,144,10.1
606,254,10.12
607,213,10.09
608,285,10.12
609,111,10.1
610,179,10.1
611,178,10.09
612,104,10.1
613,425,10.11
614,324,10.1
615,255,10.09
616,70,10.12
617,431,10.08
618,159,10.1
619,195,10.1
620,228,10.09
621,201,10.12
622,14,10.13
623,148,10.1
624,111,10.1
625,384,10.12
626,380,10.12
627,380,10.08
628,206,10.12
629,257,10.11
630,99,10.12
631,151,10.09
632,218,10.11
633,217,10.13
634,230,10.11
635,294,10.11
636,252,10.12
637,213,10.11
638,91,10.1
639,130,10.11
640,0,10.11
641,154,10.11
642,231,10.12
643,347,10.12
644,204,10.12
645,78,10.11
646,146,10.11
647,239,10.1
648,165,10.09
649,363,10.12
650,88,10.1
651,221,10.07
652,66,10.13
653,221,10.11
654,383,10.11
655,86,10.09
656,130,10.1
657,0,10.1
658,409,10.1
659,299,10.1
660,28,10.1
661,241,10.11
662,242,10.12
663,405,10.11
664,238,10.11
665,55,10.12
666,255,10.1
667,238,10.12
668,195,10.16
669,31,10.12
670,171,10.02
671,195,10.12
672,95,10.12
673,108,10.08
674,18,10.1
675,182,10.11
676,303,10.12
677,50,10.09
678,120,10.1
679,150,10.08
680,386,10.11
681,292,10.1
682,169,10.09
683,124,10.11
684,123,10.12
685,225,10.1
686,209,10.11
687,282,10.1
688,135,10.1
689,189,10.1
690,59,10.1
691,260,10.1
692,191,10.11
693,18,10.11
694,141,10.11
695,279,10.11
696,174,10.13
697,159,10.11
698,39,10.1
699,1,10.09
700,334,10.1
701,304,10.1
702,23,10.11
703,32,10.12
704,224,10.11
705,233,10.11
706,249,10.13
707,103,10.13
708,174,10.1
709,50,10.09
710,158,10.11
711,171,10.1
712,164,10.08
713,96,10.1
714,101,10.1
715,231,10.11
716,236,10.08
717,100,10.1
718,153,10.12
719,133,10.12
720,315,10.11
721,384,10.11
722,38,10.11
723,300,10.12
724,352,10.12
725,107,10.11
726,146,10.09
727,268,10.11
728,211,10.13
729,74,10.11
730,276,10.1
731,17,10.1
732,158,10.13
733,279,10.13
734,326,10.11
735,247,10.13
736,252,10.11
737,57,10.1
738,297,10.11
739,272,10.1
740,105,10.1
741,395,10.07
742,292,10.09
743,177,10.14
744,338,10.06
745,89,10.09
746,178,10.14
747,414,10.08
748,39,10.1
749,139,10.11
750,258,10.12
751,84,10.11
752,142,10.1
753,255,10.12
754,63,10.11
755,76,10.08
756,165,10.11
757,315,10.11
758,146,10.11
759,307,10.11
760,163,10.11
761,75,10.09
762,243,10.1
763,176,10.1
764,41,10.11
765,234,10.1
766,371,10.12
767,242,10.11
768,78,10.11
769,128,10.11
770,179,10.1
771,335,10.09
772,266,10.12
773,18,10.13
774,299,10.11
775,381,10.12
776,385,10.09
777,87,10.09
778,155,10.12
779,263,10.11
780,112,10.11
781,116,10.13
782,127,10.09
783,49,10.11
784,346,10.11
785,35,10.12
786,234,10.11
787,253,10.11
788,177,10.11
789,249,10.1
790,202,10.13
791,53,10.11
792,337,10.12
793,296,10.09
794,282,10.11
795,345,10.09
796,170,10.1
797,350,10.1
798,238,10.09
799,198,10.11
800,367,10.1
801,85,10.12
802,232,10.09
803,306,10.11
804,20,10.12
805,60,10.13
806,259,10.09
807,81,10.12
808,117,10.11
809,125,10.1
810,87,10.1
811,129,10.13
812,45,10.11
813,16,10.12
814,309,10.12
815,5,10.1
816,225,10.12
817,290,10.06
818,165,10.25
819,272,9.98
820,119,10.23
821,198,10.1
822,96,10.08
823,14,10.14
824,346,10.09
825,331,10.05
826,356,10.11
827,95,10.11
828,211,10.11
829,108,10.1
830,384,10.11
831,81,10.11
832,320,10.1
833,201,10.11
834,273,10.05
835,281,10.17
836,408,10.12
837,61,10.05
838,221,10.09
839,369,10.06
840,127,10.16
841,144,10.1
842,308,10.12
843,404,10.09
844,104,10.11
845,270,10.14
846,134,10.1
847,154,10.11
848,229,10.1
849,361,10.12
850,296,10.12
851,252,10.09
852,106,10.12
853,101,10.11
854,324,10.09
855,303,10.09
856,194,10.15
857,50,10.12
858,181,10.08
859,281,10.13
860,396,10.08
861,56,10.13
862,331,10.08
863,289,10.13
864,166,10.09
865,63,10.12
866,357,10.09
867,235,10.11
868,302,10.11
869,279,10.12
870,195,10.09
871,170,10.11
872,112,10.12
873,61,10.11
874,239,10.12
875,242,10.11
876,267,10.11
877,143,10.12
878,421,10.12
879,285,10.1
880,48,10.11
881,281,10.12
882,211,10.12
883,255,10.1
884,1,10.11
885,185,10.11
886,64,10.09
887,305,10.13
888,31,10.11
889,271,10.15
890,291,10.1
891,330,10.12
892,233,10.1
893,266,10.14
894,235,10.09
895,67,10.12
896,142,10.11
897,174,10.11
898,282,10.09
899,54,10.12
900,204,10.12
901,279,10.11
902,102,10.12
903,111,10.11
904,92,10.1
905,26,10.09
906,153,10.13
907,369,10.14
908,435,10.13
909,88,10.08
910,214,10.09
911,123,10.1
912,336,10.12
913,29,10.12
914,88,10.11
915,119,10.1
916,316,10.12
917,373,10.13
918,79,10.15
919,187,10.11
920,382,10.14
921,66,10.28
922,287,9.98
923,366,10.03
924,377,10.09
925,210,10.08
926,195,10.07
927,132,10.05
928,213,10.07
929,215,10.17
930,404,10.12
931,180,10.11
932,258,10.1
933,15,10.09
934,216,9.99
935,298,10.15
936,143,10.07
937,270,10.15
938,354,10.08
939,196,10.09
940,65,10.14
941,238,10.14
942,254,10.12
943,104,10.1
944,342,10.13
945,91,10.1
946,204,10.09
947,192,10.11
948,258,10.11
949,120,10.13
950,209,10.11
951,301,10.12
952,234,10.1
953,93,10.12
954,313,10.12
955,132,10.09
956,170,10.12
957,263,10.11
958,141,10.11
959,124,10.11
960,19,10.1
961,308,10.11
962,57,10.12
963,228,10.1
964,250,10.14
965,67,10.11
966,162,10.1
967,304,10.12
968,187,10.12
968,234,10.1
970,291,10.08
971,66,10.11
972,61,10.12
973,185,10.08
974,186,10.08
975,309,10.13
976,105,10.12
977,222,10.1
978,28,10.1
979,382,10.11
980,397,10.09
981,220,10.1
982,119,10.13
983,65,10.12
984,50,10.12
985,187,10.11
986,206,10.07
987,104,10.12
988,203,10.11
989,113,10.11
990,201,10.12
991,113,10.12
992,330,10.12
993,372,10.11
994,51,10.12
995,148,10.11
996,159,10.12
997,99,10.12
998,52,10.12
999,384,10.1
999,362,10.12
1000,147,10.12
1000,230,10.13
1000,255,10.12
1000,310,10.12
1000,153,10.09
1000,330,10.1
1000,113,10.11
1000,188,10.11
1000,304,10.11
1000,190,10.1
1000,389,10.11
1000,141,10.13
1000,249,10.12
1000,334,10.1
1000,142,10.11
1000,115,10.1
1000,236,10.11
1000,53,10.11
1000,298,10.14
1000,199,10.12
1000,384,10.12
1000,179,10.09
1000,249,10.09
1000,71,10.1
1000,197,10.1
1000,301,10.1
1000,52,10.1
1000,126,10.12
1000,56,10.15
1000,157,10.07
1000,212,10.08
1000,141,10.11
1000,271,10.13
1000,291,10.1
1000,279,10.12
1000,308,10.11
1001,144,10.12
1006,209,10.14
1003,31,10.11
1021,247,10.13
1021,228,10.1
1026,123,10.13
1027,113,10.12
1028,293,10.09
1032,104,10.12
1036,159,10.12
1036,380,10.11
1038,285,10.11
1038,102,10.11
1038,170,10.12
1040,323,10.12
1044,250,10.09
1044,187,10.1
1045,278,10.12
1048,416,10.1
1049,135,10.11
1047,65,10.11
1052,105,10.11
1052,182,10.1
1055,354,10.11
1057,42,10.11
1057,380,10.11
1060,235,10.13
1062,44,10.11
1062,40,10.1
1065,98,10.09
1066,260,10.12
1067,257,10.11
1069,242,10.09
1068,66,10.11
1069,91,10.12
1072,302,10.11
1073,219,10.11
1073,334,10.12
1074,241,10.09
1076,123,10.13
1076,227,10.11
1077,57,10.1
1079,340,10.1
1080,276,10.12
1081,132,10.12
1081,393,10.11
1082,204,10.1
1084,372,10.1
1085,208,10.12
1086,279,10.1
1087,146,10.11
1088,249,10.13
1089,348,10.12
1090,380,10.1
1091,306,10.1
1092,123,10.09
1093,92,10.09
1094,194,10.11
1095,401,10.08
1095,282,10.12
1097,250,10.12
1098,215,10.11
1099,65,10.11
1100,176,10.12
1101,31,10.11
1102,250,10.1
1103,362,10.09
1104,290,10.14
1105,43,10.09
1106,149,10.11
1107,233,10.11
1108,263,10.12
1109,152,10.1
1109,199,10.11
1111,304,10.11
1112,81,10.12
1113,216,10.12
1114,185,10.11
1115,283,10.1
1116,167,10.13
1117,211,10.14
1118,206,10.12
1119,35,10.12
1120,259,10.1
1121,324,10.1
1122,109,10.09
1123,87,10.1
1124,226,10.12
1125,159,10.11
1126,249,10.13
1127,102,10.11
1128,141,10.1
1129,195,10.09
1130,79,10.09
1131,157,10.11
1132,173,10.11
1133,243,10.1
1134,143,10.09
1135,390,10.11
1136,144,10.13
1137,85,10.13
1138,87,10.13
1139,206,10.1
1140,146,10.12
1141,227,10.12
1142,95,10.13
1143,228,10.12
1144,332,10.12
1145,165,10.11
1146,133,10.1
1147,59,10.11
1148,168,10.11
1149,294,10.11
1150,136,10.1
1151,135,10.1
1152,101,10.12
1153,282,10.12
1154,47,10.11
1155,119,10.14
1156,208,10.12
1157,204,10.09
1158,358,10.1
1159,230,10.09
1160,38,10.1
1161,68,10.1
1162,247,10.12
1163,234,10.09
1164,242,10.12
1165,301,10.12
1166,95,10.13
1167,165,10.09
1168,109,10.13
1169,398,10.11
1170,416,10.1
1171,98,10.11
1172,182,10.12
1173,343,10.21
1174,225,10.18
1175,357,10.06
1176,363,10.06
1177,171,10.12
1178,283,10.12
1179,328,10.11
1180,323,10.04
1181,25,9.83
1182,198,10.77
1183,199,10.36
1184,251,10.24
1185,373,10.25
1186,30,10.07
1187,249,10.26
1188,305,9.93
1189,216,10.07
1190,149,10.1
1191,275,9.95
1192,84,10.21
1193,270,10.05
1194,121,10.34
1195,202,10.31
1196,142,10.09
1196,320,10.16
1198,51,9.99
1199,231,10.12
1200,76,10.11
1201,197,10.1
1202,62,10.08
1203,213,10.12
1203,329,10.12
1205,354,10.1
1205,176,10.09
1206,54,10.11
1208,66,10.09
1208,221,10.13
1210,305,10.08
1211,193,10.13
1212,125,10.13
1213,388,10.11
1214,207,10.08
1215,408,10.21
1216,40,10.02
1217,177,10.07
1218,308,10.17
1219,404,10.08
1220,93,10.06
1221,365,10.11
1222,104,10.11
1223,392,10.1
1224,156,10.11
1225,53,10.08
1226,29,10.11
1227,195,10.16
1228,159,10.08
1229,300,10.13
1230,164,10.08
1231,347,10.15
1232,262,10.08
1233,59,10.13
1234,232,10.1
1235,180,10.11
1236,174,10.13
1237,298,10.11
1238,161,10.11
1239,233,10.1
1240,101,10.1
1241,382,10.1
1242,55,10.09
1243,9,10.11
1244,110,10.12
1245,269,10.1
1246,206,10.09
1247,132,10.15
1248,295,10.11
1249,156,10.14
1250,264,10.12
1251,90,10.1
1252,165,10.12
1253,366,10.09
1254,147,10.11
1255,94,10.08
1256,115,10.12
1257,260,10.08
1258,200,10.11
1259,78,10.12
1260,94,10.13
1261,178,10.08
1262,95,10.11
1263,127,10.11
1264,274,10.1
1265,347,10.1
1266,359,10.1
1267,381,10.12
1268,119,10.12
1269,199,10.11
1270,141,10.11
1271,52,10.12
1272,72,10.1
1273,235,10.12
1274,250,10.11
1275,387,10.08
1276,24,10.1
1277,205,10.11
1278,214,10.07
1279,120,10.12
1280,214,10.1
1281,210,10.11
1282,146,10.09
1283,130,10.11
1284,42,10.11
1285,366,10.09
1286,148,10.1
1287,324,10.1
1288,151,10.1
1289,302,10.11
1290,329,10.11
1291,215,10.09
1292,165,10.12
1293,222,10.1
1294,141,10.12
1295,97,10.12
1296,237,10.1
1297,284,10.11
1298,203,10.1
1299,160,10.12
1300,320,10.08
1301,51,10.13
1302,66,10.11
1303,148,10.1
1304,123,10.1
1305,194,10.09
1306,277,10.12
1307,345,10.12
1308,113,10.12
1309,124,10.12
1310,271,10.13
1311,255,10.11
1312,173,10.08
1313,91,10.12
1314,139,10.08
1315,191,10.11
1316,265,10.13
1317,125,10.11
1318,141,10.1
1319,169,10.11
1320,193,10.13
1321,237,10.1
1322,171,10.12
1323,322,10.12
1324,150,10.12
1325,167,10.11
1326,145,10.1
1327,298,10.11
1328,273,10.1
1329,212,10.12
1330,127,10.1
1331,239,10.11
1332,248,10.13
1333,70,10.09
1334,157,10.07
1335,228,10.15
1336,237,10.12
1337,267,10.09
1338,170,10.13
1339,256,10.08
1340,257,10.11
1341,95,10.12
1342,227,10.12
1343,34,10.11
1344,217,10.08
1345,287,10.1
1346,244,10.11
1347,95,10.1
1348,161,10.1
1349,199,10.08
1350,66,10.08
1351,159,10.23
1352,225,10.17
1353,166,10.14
1354,176,10.07
1355,271,10.05
1356,231,10.1
1357,207,10.07
1358,319,10.1
1359,114,10.12
1360,115,10.12
1361,128,10.12
1362,290,10.08
1363,245,10.13
1364,161,10.12
1365,108,10.14
1366,244,10.09
1367,89,10.08
1368,195,10.13
1369,369,10.14
1370,160,10.12
1371,250,10.09
1372,131,10.13
1373,125,10.12
1374,252,10.12
1375,256,10.15
1376,45,10.12
1377,193,10.09
1378,243,10.13
1379,348,10.12
1380,233,10.11
1381,281,10.11
1382,171,10.12
1383,168,10.09
1384,362,10.1
1385,58,10.18
1386,206,10.07
1387,206,10.14
1388,208,10.06
1389,132,10.14
1390,105,10.06
1391,238,10.08
1392,206,10.1
1393,129,10.1
1394,165,10.12
1395,82,10.13
1396,235,10.1
1397,297,10.09
1398,139,10.1
1399,368,10.09
1400,244,10.12
1401,81,10.11
1402,272,10.13
1403,103,10.14
1404,64,10.11
1405,213,10.1
1406,101,10.11
1407,194,10.11
1408,73,10.15
1409,137,10.08
1410,360,10.11
1411,231,10.13
1412,262,10.16
1413,101,10.02
1414,97,9.68
1415,135,10.07
1416,242,9.99
1417,144,10.04
1418,283,10.05
1419,379,10.11
1420,129,10.09
1421,258,10.14
1422,31,10.15
1423,200,10.14
1424,194,10.05
1425,145,10.12
1426,196,10.09
1427,209,10.12
1428,146,10.07
1429,92,10.07
1430,206,10.13
1431,398,10.11
1432,116,10.12
1433,77,10.11
1434,233,10.07
1435,215,10.01
1436,179,10.15
1437,290,10.2
1438,359,10.05
1439,130,10.13
1440,301,10.15
1441,201,10.08
1442,266,10.09
1443,262,10.15
1444,288,10.06
1445,120,10.08
1446,175,10.09
1447,252,10.13
1448,260,10.1
1449,249,10.13
1450,260,10.24
1451,240,10.02
1452,238,10.06
1453,347,10.07
1454,298,10.07
1455,129,10.15
1456,286,10.09
1457,65,10.07
1458,71,10.1
1459,124,10.06
1460,320,10.08
1461,147,10.12
1462,171,10.17
1463,174,10.06
1464,94,9.89
1465,229,9.92
1466,232,9.88
1467,396,10.1
1468,256,10.14
1469,30,10.07
1470,201,10.03
1471,246,10.1
1472,110,10.14
1473,54,10.1
1474,375,10.22
1475,61,9.95
1476,55,10.23
1477,226,10.08
1478,156,10.22
1479,152,10.04
1480,115,10.17
1481,191,10.12
1482,10,10.14
1483,278,10.09
1484,267,10.09
1485,118,10.11
1486,32,10.12
1487,215,10.16
1488,251,9.94
1489,225,9.99
1490,232,10.19
1491,265,10.19
1492,183,10.08
1493,220,10.07
1494,87,10.09
1495,144,10.09
1496,251,10.1
1497,125,10.11
1498,255,10.12
1499,111,10.1
1500,168,10.1
1501,204,10.11
1502,319,10.13
1503,206,10.11
1504,423,10.11
1505,307,10.08
1506,74,10.08
1507,316,10.14
1508,263,10.11
1509,161,10.13
1510,286,10.11
1511,253,10.06
1512,142,10.11
1513,261,10.16
1514,136,10.05
1515,162,10.15
1516,155,10.09
1517,278,10.15
1518,75,10.08
1519,76,10.11
1520,218,10.11
1521,146,10.1
1522,93,10.1
1523,110,10.12
1524,267,10.1
1525,40,10.09
1526,129,10.1
1527,222,10.11
1528,266,10.09
1529,116,10.08
1530,143,10.13
1531,85,10.11
1532,246,10.14
1533,311,10.11
1534,213,10.11
1535,158,10.12
1536,135,10.13
1537,156,10.1
1538,313,10.11
1539,364,10.1
1540,271,10.11
1541,105,10.1
1542,260,10.14
1543,222,10.11
1544,337,10.1
1545,118,10.11
1546,263,10.09
1547,251,10.11
1548,65,10.11
1549,125,10.12
1550,154,10.09
1551,183,10.11
1552,138,10.1
1553,316,10.1
1554,320,10.1
1555,115,10.1
1556,293,10.13
1557,234,10.11
1558,225,10.12
1559,322,10.12
1560,140,10.11
1561,294,10.11
1562,151,10.11
1563,87,10.12
1564,207,10.11
1565,293,10.11
1566,187,10.11
1567,198,10.12
1568,312,10.1
1569,191,10.11
1570,105,10.13
1571,225,10.12
1572,191,10.11
1573,397,10.11
1574,215,10.13
1575,149,10.11
1576,277,10.11
1577,264,10.12
1578,249,10.11
1579,114,10.1
1580,330,10.11
1581,109,10.1
1582,130,10.09
1583,179,10.12
1584,233,10.1
1585,320,10.11
1586,343,10.14
1587,129,10.12
1588,120,10.13
1589,290,10.12
1590,284,10.07
1591,318,10.15
1592,249,10.11
1593,198,10.11
1594,300,10.11
1595,161,10.1
1596,95,10.12
1597,365,10.13
1598,265,10.1
1599,272,10.1
1600,271,10.1
1601,233,10.13
1602,87,10.1
1603,225,10.12
1604,270,10.09
1605,281,10.12
1606,28,10.11
1607,265,10.09
1608,99,10.1
1609,57,10.1
1610,275,10.1
1611,369,10.11
1612,116,10.11
1613,171,10.1
1614,347,10.1
1615,268,10.1
1616,101,10.1
1617,158,10.1
1618,225,10.11
1619,140,10.12
1620,52,10.1
1621,162,10.11
1622,387,10.12
1623,107,10.1
1624,198,10.08
1625,194,10.12
1626,229,10.11
1627,278,10.13
1628,252,10.11
1629,163,10.11
1630,176,10.14
1631,306,10.09
1632,118,10.09
1633,354,10.1
1634,370,10.11
1635,289,10.11
1636,94,10.1
1637,243,10.13
1638,207,10.08
1639,273,10.09
1640,45,10.12
1641,220,10.07
1642,357,10.09
1643,298,10.1
1644,70,10.11
1645,251,10.12
1646,251,10.12
1647,316,10.11
1648,162,10.12
1649,73,10.11
1650,26,10.12
1651,337,10.13
1652,259,10.12
1653,275,10.11
1654,221,10.1
1655,238,10.12
1656,194,10.12
1657,44,10.1
1658,26,10.1
1659,189,10.11
1660,359,10.12
1661,266,10.13
1662,244,10.12
1663,295,10.09
1664,345,10.1
1665,310,10.13
1666,113,10.11
1667,131,10.11
1668,269,10.1
1669,54,10.11
1670,232,10.12
1671,118,10.11
1672,193,10.09
1673,235,10.1
1674,234,10.11
1675,101,10.12
1676,282,10.11
1677,127,10.1
1678,238,10.12
1679,195,10.11
1680,189,10.1
1681,291,10.11
1682,111,10.1
1683,152,10.1
1684,263,10.1
1685,161,10.11
1686,148,10.12
1687,317,10.1
1688,141,10.07
1689,174,10.12
1690,380,10.11
1691,159,10.1
1692,224,10.11
1693,278,10.11
1694,286,10.12
1695,267,10.12
1696,137,10.11
1697,239,10.11
1698,167,10.11
1699,127,10.12
1700,346,10.11
1701,381,10.11
1702,142,10.12
1703,129,10.09
1704,191,10.09
1705,296,10.11
1706,310,10.12
1707,156,10.11
1708,110,10.11
1709,117,10.1
1710,303,10.09
1711,264,10.13
1712,121,10.1
1713,342,10.12
1714,170,10.09
1715,223,10.1
1716,220,10.11
1717,232,10.09
1718,351,10.1
1719,166,10.12
1720,283,10.12
1721,188,10.08
1722,189,10.14
1723,244,10.11
1724,62,10.11
1725,245,10.1
1726,298,10.12
1727,19,10.13
1728,198,10.12
1729,103,10.1
1730,315,10.11
1731,177,10.1
1732,208,10.1
1733,131,10.13
1734,278,10.12
1735,224,10.1
1736,86,10.11
1737,216,10.12
1738,167,10.13
1739,88,10.1
1740,187,10.11
1741,177,10.08
1742,111,10.1
1743,108,10.14
1744,180,10.14
1745,231,10.09
1746,194,10.09
1747,273,10.12
1748,219,10.15
1749,247,10.07
1750,73,10.16
1751,208,10.03
1752,164,10.0
1753,55,10.14
1754,235,10.1
1755,216,10.11
1756,155,10.11
1757,200,10.12
1758,153,10.08
1759,69,10.11
1760,97,10.11
1761,176,10.12
1762,218,10.1
1763,166,10.09
1764,139,10.11
1765,184,10.12
1766,328,10.1
1767,167,10.1
1768,188,10.11
1769,245,10.11
1770,386,10.11
1771,293,10.12
1772,406,10.13
1773,282,10.1
1774,318,10.12
1775,47,10.1
1776,329,10.11
1777,37,10.1
1778,106,10.13
1779,178,10.1
1780,42,10.11
1781,139,10.09
1782,216,10.11
1783,225,10.11
1784,0,10.08
1785,180,10.13
1786,30,10.13
1787,236,10.08
1788,280,10.14
1789,281,10.1
1790,1,10.13
1791,109,10.1
1792,364,10.12
1793,269,10.1
1794,103,10.09
1795,278,10.11
1796,93,10.09
1797,252,10.12
1798,144,10.06
1799,80,10.12
1800,350,10.15
1801,65,10.09
1802,0,10.14
1803,284,10.08
1804,111,10.09
1805,175,10.08
1806,182,10.11
1807,239,10.11
1808,261,10.13
1809,213,10.1
1810,60,10.1
1811,225,10.09
1812,193,10.1
1813,302,10.12
1814,225,10.1
1815,265,10.14
1816,369,10.09
1817,45,10.11
1818,256,10.12
1819,378,10.12
1820,308,10.09
1821,269,10.12
1822,170,10.11
1823,97,10.11
1824,282,10.09
1825,345,10.16
1826,212,10.08
1827,381,10.11
1828,121,10.08
1829,165,10.08
1830,203,10.15
1831,143,10.13
1832,378,10.09
1833,147,10.12
1834,302,10.09
1835,105,10.12
1836,191,10.1
1837,225,10.1
1838,249,10.1
1839,260,10.1
1840,293,10.12
1841,219,10.13
1842,302,10.08
1843,377,10.1
1844,16,10.11
1845,240,10.11
1846,190,10.11
1847,280,10.1
1848,308,10.11
1849,352,10.11
1849,109,10.12
1850,125,10.1
1852,1,10.09
1853,255,10.12
1854,265,10.11
1855,222,10.12
1856,176,10.12
1857,120,10.12
1858,62,10.11
1859,178,10.13
1860,275,10.13
1861,192,10.1
1862,160,10.12
1863,315,10.1
1864,142,10.11
1865,55,10.1
1866,85,10.13
1867,335,10.1
1868,153,10.11
1869,186,10.11
1870,91,10.14
1871,73,10.12
1872,228,10.11
1873,91,10.11
1874,286,10.09
1875,139,10.11
1876,45,10.13
1877,230,10.09
1878,173,10.1
1879,65,10.1
1880,23,10.09
1881,180,10.11
1882,359,10.12
1883,277,10.1
1884,229,10.1
1885,1,10.1
1886,208,10.11
1887,356,10.12
1888,159,10.11
1889,339,10.13
1890,136,10.11
1891,182,10.09
1892,292,10.1
1893,123,10.11
1894,308,10.11
1895,261,10.1
1896,331,10.12
1897,162,10.09
1898,0,10.1
1899,268,10.11
1900,141,10.14
1901,361,10.11
1902,28,10.09
1903,254,10.11
1904,141,10.1
1905,159,10.1
1906,349,10.1
1907,262,10.1
1908,280,10.09
1909,67,10.1
1910,214,10.03
1911,215,10.09
1912,353,10.09
1913,115,10.11
1914,275,10.12
1915,208,10.08
1916,280,10.23
1917,136,9.9
1918,183,9.96
1919,84,10.18
1920,365,10.15
1921,372,9.98
1922,155,10.01
1923,0,10.38
1924,254,10.15
1925,208,10.17
1926,83,10.11
1927,332,10.0
1928,193,10.03
1929,107,10.2
1930,233,10.0
1931,255,10.09
1932,93,10.06
1933,99,10.1
1934,162,10.09
1935,135,10.07
1936,160,10.09
1937,269,10.09
1938,302,10.12
1939,262,10.11
1940,18,10.11
1941,227,10.14
1942,97,10.12
1943,3,10.11
1944,79,10.08
1945,195,10.03
1946,256,10.12
1947,160,10.1
1948,195,10.07
1949,256,10.09
1950,233,10.14
1951,104,10.12
1951,221,10.08
1953,0,10.07
1954,174,10.21
1955,156,10.09
1956,327,10.18
1957,108,10.08
1958,162,10.17
1959,352,10.03
1960,213,10.07
1961,22,10.09
1962,136,10.12
1963,0,10.1
1964,0,10.13
1965,0,10.14
1966,1023,10.07
1967,532,10.11
1968,800,10.1
1969,1023,10.09
1970,225,10.11
1971,1023,10.12
1972,1023,10.19
1973,1023,10.03
1974,1020,10.25
1975,1011,10.02
1976,515,10.26
1977,0,6.66
1978,1023,12.86
1979,1023,11.48
1980,573,9.91
1981,289,10.27
1982,0,9.88
1983,463,10.37
1984,174,9.99
1985,89,9.87
1986,0,10.22
1987,0,10.18
1988,31,10.03
1989,0,9.95
1990,425,10.49
1991,34,9.75
1992,2,10.36
1993,49,9.58
1994,299,9.96
1995,0,10.05
1996,0,9.95
1997,0,11.01
1998,284,9.9
1999,0,10.1
2000,290,9.72
2000,438,10.19
2000,0,9.87
2000,578,10.4
2000,0,10.38
2000,0,9.64
2000,183,10.31
2001,0,10.38
2001,23,9.4
2003,0,10.67
2004,1023,9.88
2005,770,9.42
2007,607,8.69
2008,53,13.06
2010,0,8.7
2013,0,9.96
2014,0,9.94
2017,143,10.1
2018,146,10.48
2019,0,9.84
2020,380,10.32
2021,0,9.86
2022,1023,10.34
2023,0,10.29
2024,37,10.22
2025,0,10.19
2026,0,10.47
2027,0,10.08
2028,32,10.99
2029,78,8.97
2030,23,9.54
2031,79,10.12
2032,0,9.67
2033,0,9.94
2034,0,10.39
2035,49,11.11
2036,1023,10.21
2037,1023,9.98
2038,1023,9.4
2039,1023,10.52
2040,559,9.63
2041,427,10.46
2042,526,9.61
2043,88,10.27
2044,0,10.18
2045,0,10.32
2046,761,10.35
2047,338,10.39
2048,665,9.44
2049,467,9.32
2050,273,9.46
2050,0,10.71
2052,356,10.51
2053,0,10.37
2054,0,10.32
2055,37,10.3
2056,23,9.97
2057,0,10.15
2058,0,9.21
2059,782,10.16
2060,86,10.39
2061,0,10.38
2062,126,10.18
2063,36,10.02
2064,36,10.04
2065,0,10.02
2066,31,10.21
2067,0,10.16
2068,0,10.06
2069,66,10.06
2070,27,10.01
2071,61,9.97
2072,30,10.1
2073,98,10.31
2074,141,9.95
2075,149,9.91
2076,0,9.74
2077,78,9.9
2078,69,9.98
2079,0,10.07
2080,254,10.36
2081,32,9.73
2082,0,10.01
2083,38,10.09
2084,0,10.16
2085,0,10.09
2086,0,9.99
0,0,9.82
1,0,9.84
2,0,9.84
2,0,9.83
3,0,9.8
5,0,9.81
6,0,9.86
7,0,9.83
8,0,9.82
8,0,9.82
10,0,9.82
11,0,9.84
12,0,9.8
13,0,9.83
14,0,9.83
15,0,9.82
16,0,9.84
17,0,9.84
18,0,9.83
19,0,9.83
20,0,9.84
21,0,9.84
22,0,9.82
23,0,9.84
24,0,9.82
25,0,9.85
26,0,9.84
27,0,9.83
28,0,9.81
29,0,9.83
30,0,9.83
31,0,9.84
32,0,9.82
33,0,9.82
34,0,9.83
35,0,9.82
36,30,9.84
37,0,9.77
38,0,9.83
39,0,9.83
40,0,9.82
41,0,9.84
42,0,9.86
43,0,9.84
44,0,9.83
45,0,9.84
46,0,9.83
47,0,9.82
48,0,9.84
49,0,9.83
50,0,9.83
51,0,9.82
52,0,9.81
53,0,9.82
54,0,9.83
55,0,9.84
56,0,9.83
57,0,9.82
58,0,9.85
59,0,9.84
60,0,9.84
61,0,9.82
62,0,9.83
63,0,9.81
64,0,9.83
65,0,9.85
66,0,9.86
67,0,9.8
68,0,9.84
69,0,9.83
70,0,9.82
71,0,9.82
72,0,9.83
73,0,9.8
74,0,9.82
75,0,9.82
76,0,9.82
77,0,9.83
78,0,9.83
79,0,9.83
80,0,9.83
81,0,9.83
82,0,9.84
83,0,9.83
84,0,9.82
85,0,9.84
86,0,9.8
87,0,9.84
88,0,9.83
89,0,9.84
90,0,9.85
91,0,9.83
92,0,9.83
93,0,9.83
94,0,9.83
95,0,9.82
96,0,9.82
97,0,9.82
98,0,9.84
99,0,9.85
100,0,9.83
101,0,9.83
102,0,9.82
103,13,9.83
104,0,9.83
105,0,9.82
106,0,9.83
107,0,9.85
108,0,9.85
109,0,9.81
110,0,9.83
111,0,9.83
112,0,9.84
113,0,9.83
114,0,9.84
115,0,9.85
116,0,9.83
117,0,9.85
118,0,9.83
119,0,9.83
120,0,9.83
121,0,9.85
122,0,9.84
123,0,9.83
124,0,9.8
125,0,9.84
126,0,9.83
127,0,9.82
128,0,9.84
129,0,9.83
130,0,9.81
131,0,9.82
132,0,9.82
133,0,9.83
134,29,9.84
135,0,9.83
136,4,9.8
137,0,9.78
138,0,9.78
139,0,9.82
140,0,9.85
141,0,9.83
142,0,9.83
143,0,9.83
144,0,9.83
145,0,9.83
146,0,9.82
147,0,9.84
148,0,9.83
149,0,9.83
150,0,9.85
151,0,9.83
152,0,9.79
153,0,9.86
154,0,9.81
155,0,9.82
156,0,9.84
157,0,9.83
158,0,9.82
159,0,9.84
160,0,9.82
161,0,9.83
162,0,9.82
163,0,9.82
164,0,9.82
165,0,9.84
166,0,9.83
167,0,9.82
168,0,9.83
169,0,9.83
170,0,9.83
171,0,9.83
172,0,9.81
173,0,9.81
174,0,9.83
175,0,9.83
176,0,9.83
177,0,9.81
178,0,9.84
179,0,9.83
180,0,9.83
181,0,9.83
182,0,9.82
183,0,9.82
184,0,9.83
185,0,9.82
186,0,9.84
187,0,9.82
188,0,9.82
189,0,9.83
189,0,9.82
191,0,9.83
192,0,9.82
193,0,9.84
194,0,9.83
195,0,9.83
196,0,9.84
197,0,9.83
198,0,9.84
199,0,9.82
200,0,9.84
201,0,9.81
202,0,9.82
203,0,9.85
204,0,9.83
205,0,9.83
206,0,9.84
207,0,9.82
208,0,9.83
209,0,9.83
210,0,9.92
211,0,9.79
212,0,9.85
213,0,9.73
214,0,9.81
215,0,9.87
216,0,9.81
217,0,9.83
218,0,9.83
219,0,9.83
220,0,9.83
221,0,9.82
222,0,9.83
223,0,9.82
224,0,9.82
225,0,9.85
226,0,9.83
227,0,9.83
228,0,9.82
229,0,9.83
230,0,9.83
231,0,9.81
232,0,9.83
233,0,9.82
234,0,9.82
235,0,9.83
236,0,9.84
237,0,9.82
238,0,9.83
239,0,9.82
240,0,9.83
241,0,9.81
242,0,9.82
243,0,9.83
244,0,9.81
245,0,9.83
246,0,9.83
247,0,9.83
248,0,9.8
249,0,9.84
250,0,9.82
251,0,9.81
252,0,9.82
253,0,9.82
254,3,9.84
255,0,9.82
256,0,9.81
257,0,9.81
258,0,9.84
259,0,9.81
260,0,9.82
261,0,9.85
262,0,9.83
263,0,9.83
264,0,9.83
265,0,9.84
266,0,9.85
267,0,9.84
268,0,9.83
269,0,9.84
270,0,9.82
271,0,9.83
272,0,9.83
273,0,9.83
274,0,9.83
275,0,9.82
276,0,9.85
277,0,9.82
278,0,9.82
279,0,9.84
280,0,9.83
281,0,9.81
282,0,9.81
283,0,9.85
284,0,9.82
285,0,9.82
286,0,9.82
287,0,9.82
288,0,9.83
289,0,9.82
290,0,9.83
291,0,9.84
292,0,9.83
293,0,9.83
294,0,9.82
295,0,9.82
296,0,9.83
297,0,9.83
298,0,9.83
299,0,9.81
300,0,9.82
301,0,9.85
302,0,9.83
303,0,9.81
304,0,9.83
305,0,9.82
306,0,9.84
307,0,9.82
308,0,9.82
309,0,9.83
310,0,9.81
311,0,9.83
312,0,9.82
313,0,9.83
314,0,9.84
315,14,9.82
316,0,9.83
317,0,9.83
318,0,9.8
319,0,9.84
320,0,9.82
321,0,9.83
322,0,9.83
323,0,9.83
324,0,9.84
325,0,9.83
326,0,9.82
327,0,9.83
328,0,9.82
329,0,9.83
330,0,9.82
331,0,9.84
332,0,9.83
333,0,9.84
334,0,9.84
335,0,9.81
336,0,9.83
337,0,9.84
338,0,9.81
339,0,9.83
340,0,9.82
341,0,9.83
342,0,9.82
343,0,9.82
344,0,9.82
345,0,9.81
346,0,9.83
347,0,9.81
348,0,9.83
349,0,9.83
350,0,9.83
351,0,9.82
352,1,9.83
353,0,9.83
354,0,9.83
355,0,9.83
356,0,9.82
357,0,9.81
358,0,9.83
359,0,9.82
360,0,9.83
361,0,9.83
362,0,9.78
363,0,9.91
364,0,9.83
365,0,9.78
366,0,9.82
367,0,9.83
368,0,9.83
369,0,9.82
370,0,9.83
371,3,9.83
372,0,9.83
373,0,9.83
374,0,9.82
375,0,9.83
376,0,9.81
377,0,9.83
378,0,9.82
379,0,9.82
380,0,9.83
381,0,9.84
382,0,9.82
383,0,9.82
384,0,9.82
385,0,9.82
386,0,9.82
387,0,9.83
388,0,9.82
389,0,9.83
390,0,9.82
391,0,9.83
392,0,9.84
393,0,9.82
394,0,9.82
395,0,9.83
396,0,9.83
397,0,9.82
398,0,9.82
399,0,9.81
400,0,9.83
401,0,9.84
402,0,9.82
403,0,9.83
404,0,9.84
405,0,9.81
406,0,9.85
407,0,9.82
408,0,9.81
409,0,9.82
410,0,9.83
411,0,9.82
412,0,9.82
413,0,9.83
414,0,9.82
415,0,9.83
416,0,9.83
417,0,9.82
418,0,9.83
419,0,9.83
420,0,9.83
421,0,9.83
422,0,9.82
423,0,9.85
424,0,9.83
425,0,9.83
426,0,9.83
427,0,9.83
428,0,9.84
429,0,9.83
430,0,9.84
431,1,9.83
432,0,9.83
433,0,9.83
433,0,9.82
435,0,9.82
436,0,9.83
437,0,9.83
438,0,9.82
439,0,9.82
440,0,9.82
441,0,9.83
442,0,9.81
443,0,9.82
444,0,9.82
445,0,9.83
446,0,9.83
447,0,9.82
448,0,9.85
449,0,9.83
450,0,9.81
451,0,9.82
452,0,9.85
453,0,9.83
454,0,9.84
455,1,9.83
456,0,9.82
457,0,9.82
458,0,9.83
459,0,9.83
460,0,9.83
461,0,9.84
462,0,9.82
463,0,9.82
464,0,9.83
465,0,9.83
466,0,9.84
467,0,9.83
468,0,9.82
469,0,9.83
470,0,9.82
471,0,9.82
472,0,9.81
473,0,9.83
474,0,9.83
475,0,9.83
476,0,9.82
477,0,9.82
478,0,9.83
479,0,9.84
480,0,9.82
481,0,9.83
482,0,9.83
483,0,9.83
484,0,9.84
485,0,9.83
486,0,9.82
487,0,9.82
488,0,9.83
489,0,9.83
490,0,9.83
491,1,9.82
492,0,9.83
493,0,9.83
494,0,9.83
495,0,9.83
496,0,9.83
497,0,9.83
498,0,9.83
499,0,9.82
500,0,9.83
501,0,9.83
502,0,9.83
503,0,9.83
504,0,9.82
505,0,9.81
506,0,9.84
507,0,9.84
508,0,9.81
509,0,9.83
510,0,9.84
511,0,9.83
512,0,9.82
513,0,9.84
514,0,9.82
515,0,9.82
516,0,9.82
517,0,9.84
518,0,9.81
519,0,9.83
520,0,9.83
521,0,9.82
522,0,9.83
523,0,9.83
524,0,9.82
525,0,9.83
526,0,9.83
527,0,9.82
528,0,9.84
529,0,9.82
530,0,9.81
531,0,9.82
532,0,9.82
533,0,9.83
534,0,9.83
535,0,9.82
536,0,9.81
537,0,9.83
538,0,9.83
539,0,9.82
540,0,9.86
541,0,9.82
542,0,9.82
543,0,9.82
544,0,9.84
545,0,9.82
546,0,9.82
547,0,9.85
548,0,9.81
549,0,9.83
550,0,9.82
551,0,9.83
552,0,9.82
553,0,9.83
554,0,9.82
555,0,9.82
556,0,9.9
557,0,9.8
558,0,9.82
559,0,9.82
560,0,9.85
561,0,9.85
562,0,9.83
563,0,9.83
564,0,9.82
565,0,9.83
566,0,9.81
567,0,9.83
568,0,9.82
569,0,9.84
570,0,9.82
571,0,9.83
572,0,9.83
573,0,9.82
574,0,9.81
575,0,9.83
576,0,9.84
577,0,9.83
578,0,9.82
579,0,9.83
580,0,9.82
581,0,9.83
582,0,9.83
583,0,9.83
584,0,9.83
585,0,9.82
586,0,9.82
587,0,9.83
588,0,9.83
589,0,9.83
590,0,9.83
591,0,9.83
592,0,9.81
593,0,9.83
594,0,9.83
595,0,9.82
596,0,9.82
597,0,9.83
598,0,9.83
599,0,9.84
600,0,9.83
601,0,9.83
602,0,9.83
603,18,9.83
604,0,9.83
605,0,9.82
606,0,9.82
607,0,9.82
608,0,9.82
609,0,9.84
610,4,9.84
611,0,9.82
612,0,9.84
613,0,9.82
614,0,9.82
615,0,9.83
616,0,9.83
617,0,9.82
618,0,9.83
619,0,9.83
620,0,9.83
621,0,9.81
622,0,9.84
623,0,9.81
624,0,9.84
625,0,9.82
626,0,9.83
627,0,9.82
628,0,9.82
629,0,9.82
630,0,9.83
631,0,9.83
632,0,9.83
633,0,9.82
634,0,9.82
635,0,9.83
636,0,9.83
637,0,9.83
638,0,9.8
639,0,9.83
640,0,9.82
641,0,9.83
642,0,9.82
643,0,9.82
644,0,9.85
645,0,9.82
646,0,9.83
647,0,9.83
648,0,9.83
649,0,9.84
650,0,9.83
651,0,9.81
652,0,9.84
653,0,9.83
654,0,9.82
655,0,9.83
656,0,9.83
657,0,9.82
658,0,9.83
659,0,9.82
660,0,9.82
661,0,9.83
662,0,9.84
663,0,9.83
664,0,9.83
665,0,9.81
666,0,9.83
667,0,9.81
668,0,9.83
669,0,9.82
670,0,9.83
671,0,9.81
672,0,9.83
673,0,9.84
673,0,9.82
675,0,9.82
676,0,9.83
677,0,9.82
678,0,9.85
679,0,9.82
680,0,9.84
681,0,9.83
682,0,9.82
683,0,9.82
684,0,9.82
685,0,9.83
686,0,9.82
687,0,9.82
688,0,9.83
689,0,9.82
690,0,9.82
691,0,9.81
692,0,9.82
693,0,9.83
694,0,9.81
695,0,9.83
696,0,9.84
697,0,9.83
698,0,9.84
699,0,9.83
700,0,9.82
701,0,9.82
702,0,9.82
703,0,9.82
704,0,9.83
705,0,9.83
706,0,9.82
707,0,9.82
708,0,9.83
709,0,9.83
710,0,9.81
711,0,9.81
712,0,9.83
713,0,9.83
714,18,9.81
715,0,9.82
716,0,9.83
717,0,9.82
718,0,9.83
719,0,9.82
720,0,9.81
721,0,9.82
722,0,9.82
723,0,9.83
724,0,9.82
725,0,9.82
726,0,9.83
727,0,9.82
728,0,9.82
729,0,9.82
730,0,9.81
731,0,9.83
732,0,9.83
733,0,9.83
734,0,9.83
735,0,9.83
736,0,9.82
737,0,9.82
738,0,9.83
739,0,9.83
740,0,9.82
741,0,9.81
742,0,9.82
743,0,9.84
744,0,9.82
745,0,9.83
746,0,9.83
747,0,9.8
748,0,9.79
749,0,9.95
750,0,9.74
751,0,9.84
752,0,9.87
753,0,9.83
754,0,9.78
755,1,9.89
756,0,9.8
757,0,9.83
758,0,9.82
759,0,9.83
760,0,9.82
761,3,9.84
762,0,9.82
763,0,9.84
764,0,9.84
765,0,9.82
766,0,9.84
767,0,9.82
768,0,9.86
769,0,9.85
770,0,9.85
771,0,9.81
772,0,9.83
773,0,9.84
774,0,9.82
775,0,9.83
776,0,9.83
777,0,9.84
778,0,9.83
779,0,9.83
780,0,9.81
781,0,9.82
782,0,9.84
783,0,9.83
784,0,9.83
785,0,9.81
786,0,9.83
787,0,9.83
788,0,9.82
789,0,9.81
790,0,9.83
791,0,9.82
792,0,9.82
793,0,9.84
794,0,9.82
795,0,9.82
796,0,9.84
797,0,9.84
798,0,9.81
799,0,9.83
800,0,9.83
801,0,9.83
802,0,9.83
803,0,9.83
804,0,9.81
805,0,9.83
806,0,9.83
807,0,9.84
808,0,9.83
809,0,9.83
810,0,9.82
810,0,9.83
812,0,9.82
813,0,9.84
814,0,9.84
815,3,9.83
816,0,9.83
817,0,9.82
818,0,9.84
819,0,9.83
820,0,9.84
821,0,9.82
822,0,9.83
823,0,9.82
824,0,9.83
825,0,9.83
826,0,9.83
827,0,9.83
828,0,9.82
829,0,9.82
830,0,9.82
831,0,9.83
832,0,9.83
833,0,9.82
834,0,9.82
835,0,9.83
836,0,9.83
837,0,9.81
838,0,9.84
839,0,9.81
840,0,9.83
841,0,9.82
842,0,9.81
843,0,9.8
844,0,9.81
845,0,9.84
846,0,9.8
847,0,9.82
848,0,9.83
849,0,9.86
850,0,9.83
851,0,9.83
852,0,9.82
853,0,9.83
854,0,9.84
855,0,9.81
856,0,9.81
857,0,9.82
858,0,9.83
859,0,9.82
860,0,9.82
861,0,9.83
862,0,9.83
863,0,9.82
864,0,9.84
865,0,9.84
866,0,9.83
867,0,9.84
868,0,9.82
869,0,9.81
870,0,9.83
871,0,9.81
872,0,9.84
873,0,9.82
874,0,9.82
875,0,9.82
876,0,9.79
877,12,9.84
878,0,9.82
879,0,9.82
880,0,9.81
881,0,9.83
882,0,9.81
883,0,9.89
884,0,9.84
885,0,9.84
886,0,9.84
887,0,9.81
888,0,9.83
889,0,9.85
890,0,9.81
891,0,9.84
892,0,9.81
893,0,9.82
894,0,9.83
895,0,9.83
896,0,9.81
897,0,9.83
898,0,9.83
899,0,9.81
900,0,9.83
901,0,9.83
902,0,9.81
903,0,9.84
904,0,9.83
905,0,9.82
906,0,9.75
907,0,9.72
908,0,9.87
909,0,9.83
910,0,9.84
910,0,9.82
911,0,9.84
913,0,9.82
914,0,9.84
915,0,9.82
916,0,9.83
917,0,9.82
918,0,9.83
919,0,9.82
920,0,9.82
921,0,9.82
922,0,9.83
923,0,9.83
924,0,9.82
925,0,9.82
926,0,9.83
927,0,9.82
928,27,9.82
929,0,9.81
930,0,9.83
931,0,9.82
932,0,9.83
933,0,9.82
934,0,9.81
935,0,9.81
936,0,9.83
937,0,9.76
938,0,9.88
939,0,9.83
940,0,9.79
941,0,9.84
942,0,9.79
943,0,9.83
944,0,9.83
945,0,9.84
946,0,9.82
947,0,9.83
948,0,9.82
949,0,9.83
950,0,9.81
951,0,9.82
952,0,9.81
953,0,9.82
954,0,9.82
955,0,9.82
956,27,9.82
957,0,9.81
958,0,9.83
959,0,9.83
960,0,9.83
961,0,9.83
962,0,9.82
963,0,9.83
964,0,9.83
965,0,9.82
966,2,9.83
967,0,9.82
968,0,9.83
969,0,9.86
970,0,9.8
971,0,9.81
972,0,9.83
973,0,9.81
974,0,9.82
975,0,9.8
976,0,9.83
977,0,9.85
978,0,9.8
979,0,9.82
980,0,9.85
981,0,9.84
982,0,9.82
983,0,9.8
984,0,9.83
985,0,9.8
986,0,9.82
987,0,9.82
988,0,9.82
989,0,9.81
990,0,9.84
991,0,9.81
992,0,9.83
993,0,9.81
994,0,9.8
995,0,9.83
996,0,9.82
997,0,9.82
998,0,9.81
999,0,9.83
1000,0,9.83
1000,0,9.82
1000,0,9.83
1000,0,9.82
1000,0,9.81
1000,0,9.83
1000,0,9.82
1000,0,9.81
1000,0,9.82
1000,0,9.83
1000,0,9.83
1000,0,9.82
1000,0,9.82
1000,0,9.82
1000,0,9.82
1000,0,9.84
1000,0,9.81
1000,0,9.82
1000,0,9.81
1000,0,9.82
1000,0,9.82
1000,0,9.82
1000,0,9.82
1000,3,9.82
1000,0,9.83
1000,0,9.81
1000,0,9.83
1000,0,9.81
1000,0,9.83
1000,0,9.81
1000,0,9.82
1000,0,9.83
1000,0,9.81
1000,0,9.82
1000,0,9.82
1000,0,9.81
1000,0,9.83
1000,0,9.83
1000,0,9.81
1000,0,9.81
1000,0,9.81
1003,0,9.81
1022,0,9.81
1028,0,9.82
1030,0,9.81
1034,0,9.81
1035,0,9.83
1037,0,9.81
1038,0,9.82
1041,0,9.82
1041,0,9.83
1043,0,9.83
1043,0,9.82
1046,0,9.82
1048,0,9.82
1049,0,9.83
1051,0,9.82
1051,0,9.82
1054,0,9.81
1054,0,9.82
1054,0,9.82
1055,0,9.83
1055,0,9.82
1058,0,9.82
1059,0,9.81
1060,0,9.84
1060,0,9.82
1061,0,9.82
1062,0,9.83
1064,0,9.83
1066,0,9.81
1068,0,9.82
1070,0,9.82
1073,0,9.82
1074,0,9.83
1075,0,9.82
1076,0,9.82
1077,32,9.82
1078,0,9.82
1079,3,9.82
1080,0,9.83
1081,0,9.83
1082,0,9.81
1083,0,9.82
1084,15,9.82
1085,0,9.83
1086,0,9.82
1087,0,9.83
1088,0,9.81
1089,0,9.83
1090,0,9.83
1091,0,9.81
1092,0,9.82
1093,0,9.83
1094,0,9.82
1095,0,9.81
1096,0,9.84
1097,0,9.8
1098,0,9.83
1099,0,9.84
1100,0,9.82
1101,0,9.81
1102,0,9.82
1103,0,9.82
1104,0,9.83
1105,0,9.82
1106,0,9.83
1107,0,9.83
1108,20,9.83
1109,0,9.82
1110,0,9.82
1111,0,9.82
1112,0,9.83
1113,0,9.81
1114,0,9.81
1115,0,9.82
1116,0,9.8
1117,0,9.83
1118,0,9.82
1119,0,9.82
1120,0,9.83
1121,0,9.83
1122,0,9.81
1123,0,9.83
1124,0,9.82
1125,0,9.82
1126,0,9.83
1127,0,9.81
1128,0,9.81
1129,0,9.83
1130,0,9.83
1131,0,9.8
1132,0,9.84
1133,0,9.82
1134,0,9.82
1135,0,9.84
1136,0,9.82
1137,0,9.83
1138,0,9.82
1139,0,9.81
1140,0,9.83
1141,0,9.82
1142,0,9.83
1143,0,9.82
1144,0,9.82
1145,0,9.82
1146,0,9.82
1147,0,9.82
1148,0,9.82
1149,0,9.84
1150,0,9.82
1151,0,9.81
1152,0,9.83
1153,0,9.82
1154,0,9.88
1155,0,9.86
1156,0,9.85
1157,0,9.81
1158,0,9.82
1159,0,9.83
1160,52,9.82
1161,0,9.83
1162,0,9.81
1163,0,9.82
1164,0,9.8
1165,0,9.83
1166,0,9.83
1167,0,9.8
1168,0,9.84
1169,0,9.82
1170,0,9.83
1171,0,9.82
1172,0,9.81
1173,0,9.82
1174,0,9.82
1175,0,9.82
1176,0,9.82
1177,0,9.82
1178,0,9.81
1179,0,9.82
1180,0,9.8
1181,0,9.81
1182,0,9.81
1183,0,9.84
1184,0,9.84
1185,0,9.82
1186,0,9.81
1187,0,9.83
1188,0,9.82
1189,0,9.82
1190,0,9.86
1191,0,9.83
1192,0,9.81
1193,0,9.83
1194,0,9.83
1194,0,9.81
1196,0,9.83
1197,0,9.79
1198,0,9.83
1199,0,9.82
1200,0,9.8
1201,0,9.83
1202,0,9.8
1203,0,9.83
1204,0,9.81
1205,0,9.83
1206,0,9.83
1207,0,9.81
1208,0,9.82
1209,0,9.82
1210,0,9.84
1211,0,9.81
1212,0,9.84
1213,0,9.82
1214,0,9.82
1215,0,9.82
1216,0,9.83
1217,0,9.83
1218,0,9.82
1219,0,9.82
1220,0,9.83
1221,0,9.82
1222,0,9.82
1223,0,9.83
1224,0,9.82
1225,0,9.81
1226,0,9.83
1227,0,9.82
1228,0,9.81
1229,0,9.82
1230,0,9.83
1231,0,9.82
1232,0,9.81
1233,0,9.8
1234,0,9.82
1235,0,9.83
1236,0,9.81
1237,0,9.81
1238,0,9.82
1239,0,9.81
1240,0,9.8
1241,0,9.83
1242,0,9.82
1243,0,9.81
1244,0,9.82
1245,0,9.82
1246,0,9.81
1247,0,9.81
1248,0,9.82
1249,0,9.82
1250,0,9.81
1251,0,9.82
1252,0,9.81
1253,0,9.82
1254,0,9.83
1255,0,9.82
1256,0,9.81
1257,0,9.82
1258,0,9.83
1259,0,9.82
1260,0,9.83
1261,0,9.83
1262,0,9.81
1263,0,9.83
1264,0,9.83
1265,0,9.81
1266,0,9.79
1267,0,9.81
1268,0,9.82
1269,0,9.84
1270,0,9.82
1271,0,9.82
1272,0,9.83
1273,0,9.82
1274,0,9.82
1275,0,9.81
1276,0,9.81
1277,0,9.81
1278,0,9.83
1279,0,9.82
1280,0,9.83
1281,0,9.83
1282,0,9.81
1283,0,9.81
1284,0,9.82
1285,0,9.82
1286,0,9.82
1287,0,9.84
1288,0,9.83
1289,0,9.82
1290,0,9.82
1291,17,9.84
1292,0,9.82
1293,0,9.84
1294,0,9.83
1295,0,9.82
1296,0,9.8
1297,0,9.82
1298,0,9.81
1299,0,9.83
1300,0,9.82
1301,0,9.82
1302,0,9.81
1303,0,9.82
1304,0,9.83
1305,0,9.84
1306,0,9.82
1307,0,9.8
1308,0,9.83
1309,0,9.82
1310,0,9.8
1311,0,9.82
1312,0,9.82
1313,0,9.82
1314,0,9.83
1315,0,9.84
1316,0,9.8
1317,0,9.81
1318,0,9.81
1319,0,9.84
1320,0,9.82
1321,0,9.82
1322,0,9.81
1323,0,9.83
1324,0,9.81
1325,0,9.81
1326,0,9.83
1327,0,9.81
1328,0,9.81
1329,0,9.81
1330,0,9.82
1331,0,9.81
1332,0,9.82
1333,0,9.82
1334,0,9.82
1335,0,9.81
1336,0,9.83
1337,0,9.82
1338,0,9.8
1339,0,9.81
1340,0,9.83
1341,0,9.83
1342,0,9.82
1343,0,9.82
1344,0,9.84
1345,0,9.84
1346,0,9.82
1347,0,9.82
1348,0,9.83
1349,0,9.82
1350,0,9.82
1351,0,9.82
1352,0,9.84
1353,0,9.83
1354,0,9.83
1355,0,9.82
1356,0,9.83
1357,0,9.81
1358,0,9.81
1359,0,9.85
1360,0,9.82
1361,0,9.83
1362,0,9.82
1363,0,9.8
1364,0,9.86
1365,0,9.81
1366,6,9.84
1367,0,9.85
1368,0,9.82
1369,0,9.83
1370,0,9.82
1371,0,9.82
1372,0,9.82
1373,0,9.82
1374,0,9.82
1375,0,9.82
1376,0,9.8
1377,0,9.84
1378,0,9.82
1379,0,9.83
1380,0,9.81
1381,0,9.82
1382,0,9.84
1383,0,9.81
1384,0,9.81
1385,0,9.84
1386,0,9.82
1387,0,9.83
1388,0,9.82
1389,0,9.83
1390,0,9.84
1391,0,9.83
1392,1,9.82
1393,0,9.81
1394,0,9.83
1395,0,9.82
1396,0,9.82
1397,0,9.83
1398,0,9.81
1399,0,9.81
1400,0,9.83
1401,0,9.82
1402,0,9.84
1403,0,9.82
1404,0,9.82
1405,0,9.82
1406,0,9.83
1407,0,9.82
1408,0,9.81
1409,0,9.83
1410,0,9.83
1411,0,9.83
1412,0,9.83
1413,0,9.84
1414,0,9.81
1415,0,9.83
1416,0,9.82
1417,0,9.83
1418,0,9.81
1419,0,9.84
1420,0,9.81
1421,0,9.82
1422,0,9.82
1423,0,9.82
1424,0,9.81
1425,0,9.83
1426,0,9.83
1427,0,9.81
1428,0,9.82
1429,0,9.84
1430,0,9.82
1431,0,9.82
1432,0,9.81
1433,0,9.83
1434,0,9.8
1435,0,9.83
1436,0,9.82
1437,0,9.82
1438,0,9.82
1439,0,9.83
1440,0,9.82
1441,0,9.82
1442,0,9.81
1443,1,9.81
1444,0,9.83
1445,0,9.8
1446,0,9.83
1447,0,9.8
1448,0,9.83
1449,0,9.83
1450,0,9.83
1451,0,9.81
1452,0,9.83
1453,0,9.82
1454,0,9.82
1455,0,9.81
1456,0,9.82
1457,0,9.81
1458,0,9.81
1459,0,9.82
1460,0,9.82
1461,0,9.82
1462,0,9.81
1463,5,9.82
1464,0,9.82
1465,0,9.82
1466,0,9.83
1467,0,9.8
1468,0,9.83
1469,0,9.83
1470,0,9.82
1471,0,9.83
1472,0,9.82
1473,0,9.83
1474,0,9.81
1475,0,9.81
1476,0,9.82
1477,0,9.86
1478,0,9.83
1479,0,9.83
1480,0,9.8
1481,0,9.84
1482,0,9.81
1483,0,9.82
1484,0,9.82
1485,0,9.83
1486,0,9.8
1487,0,9.82
1488,0,9.83
1489,0,9.8
1490,0,9.83
1491,0,9.83
1492,0,9.82
1493,0,9.8
1494,0,9.81
1495,0,9.82
1496,0,9.81
1497,0,9.82
1498,0,9.83
1499,0,9.84
1500,0,9.83
1501,0,9.8
1502,0,9.83
1503,0,9.79
1504,0,9.79
1505,0,9.86
1506,0,9.9
1507,0,9.76
1508,0,9.89
1509,0,9.83
1510,0,9.8
1511,0,9.82
1512,0,9.8
1513,0,9.82
1514,0,9.82
1515,0,9.81
1516,0,9.82
1517,0,9.83
1518,0,9.83
1519,0,9.82
1520,0,9.8
1521,0,9.83
1522,0,9.83
1523,0,9.83
1524,0,9.82
1525,0,9.82
1526,0,9.82
1527,0,9.8
1528,0,9.83
1529,0,9.83
1530,0,9.81
1531,0,9.81
1532,0,9.84
1533,0,9.81
1534,0,9.82
1535,0,9.83
1536,0,9.8
1537,0,9.79
1538,0,9.8
1539,0,9.8
1540,0,9.83
1541,0,9.82
1542,0,9.83
1543,0,9.82
1544,0,9.81
1545,0,9.82
1546,0,9.83
1547,0,9.8
1548,0,9.81
1549,0,9.81
1550,0,9.83
1551,0,9.83
1552,0,9.81
1553,0,9.81
1554,0,9.82
1555,0,9.81
1556,0,9.83
1557,0,9.82
1558,0,9.82
1559,0,9.84
1560,0,9.79
1561,0,9.81
1562,0,9.83
1563,0,9.81
1563,0,9.82
1565,4,9.83
1566,0,9.82
1567,0,9.81
1568,0,9.83
1569,0,9.83
1570,0,9.82
1571,16,9.82
1572,0,9.81
1573,0,9.83
1574,0,9.81
1575,0,9.81
1576,0,9.82
1577,0,9.81
1578,11,9.8
1579,0,9.82
1580,0,9.83
1581,0,9.82
1582,0,9.82
1583,0,9.81
1584,0,9.83
1585,0,9.83
1586,0,9.83
1587,0,9.8
1588,0,9.83
1589,0,9.83
1590,0,9.79
1591,0,9.83
1592,0,9.8
1593,0,9.82
1594,0,9.83
1595,0,9.8
1596,0,9.82
1597,0,9.81
1598,0,9.79
1599,0,9.83
1600,0,9.81
1601,0,9.81
1602,0,9.81
1603,0,9.83
1604,0,9.81
1605,0,9.83
1606,0,9.82
1607,0,9.82
1608,0,9.81
1609,0,9.82
1610,0,9.83
1611,0,9.81
1612,0,9.83
1613,0,9.81
1614,0,9.83
1615,0,9.8
1616,0,9.82
1617,0,9.81
1618,0,9.82
1619,0,9.82
1620,0,9.82
1621,0,9.82
1622,0,9.81
1623,0,9.81
1624,0,9.8
1625,0,9.83
1626,0,9.81
1627,0,9.83
1628,0,9.8
1629,0,9.81
1630,0,9.83
1631,0,9.8
1632,0,9.82
1633,0,9.82
1634,0,9.81
1635,0,9.82
1636,0,9.81
1637,0,9.82
1638,0,9.81
1639,0,9.82
1640,0,9.8
1641,0,9.81
1642,0,9.8
1643,0,9.83
1644,0,9.82
1645,0,9.81
1646,0,9.81
1647,0,9.82
1648,0,9.81
1649,0,9.83
1650,0,9.81
1651,0,9.8
1652,0,9.81
1653,0,9.81
1654,0,9.84
1655,0,9.76
1656,0,9.91
1656,0,9.82
1657,0,9.86
1659,0,9.8
1660,0,9.82
1661,0,9.81
1661,0,9.8
1663,0,9.83
1664,0,9.82
1665,0,9.81
1666,0,9.81
1667,0,9.82
1668,0,9.84
1669,0,9.8
1670,0,9.78
1671,0,9.83
1672,0,9.8
1673,0,9.83
1674,0,9.82
1675,0,9.81
1676,0,9.82
1677,0,9.82
1678,0,9.82
1679,0,9.82
1680,0,9.81
1681,0,9.81
1682,0,9.8
1683,0,9.83
1684,0,9.83
1685,0,9.81
1686,0,9.8
1687,0,9.82
1688,0,9.81
1689,0,9.82
1690,0,9.81
1691,0,9.81
1692,0,9.82
1693,0,9.81
1694,0,9.82
1695,0,9.83
1696,0,9.81
1697,0,9.82
1698,0,9.82
1699,0,9.81
1700,0,9.81
1701,0,9.81
1702,0,9.82
1703,0,9.82
1704,0,9.81
1705,22,9.83
1706,0,9.83
1707,0,9.8
1708,0,9.82
1709,1,9.81
1710,0,9.81
1711,0,9.82
1712,0,9.83
1713,0,9.8
1714,0,9.83
1715,0,9.79
1716,0,9.83
1717,0,9.81
1718,0,9.81
1719,0,9.83
1720,0,9.81
1721,0,9.82
1722,0,9.81
1723,0,9.82
1724,0,9.82
1725,0,9.82
1726,0,9.82
1727,0,9.81
1728,0,9.81
1729,0,9.83
1730,0,9.81
1731,0,9.81
1732,0,9.82
1733,0,9.82
1734,0,9.82
1735,0,9.81
1736,14,9.83
1737,0,9.81
1738,0,9.82
1739,0,9.81
1740,0,9.83
1741,9,9.83
1742,0,9.82
1743,0,9.82
1744,0,9.82
1745,0,9.8
1746,0,9.81
1747,0,9.82
1748,0,9.81
1749,0,9.81
1750,0,9.81
1751,0,9.81
1752,0,9.82
1753,0,9.82
1754,0,9.83
1755,0,9.81
1756,0,9.82
1757,0,9.81
1758,0,9.82
1759,0,9.82
1760,0,9.81
1761,0,9.81
1762,0,9.82
1763,0,9.81
1764,0,9.82
1765,0,9.81
1766,0,9.82
1767,0,9.82
1768,0,9.82
1769,0,9.83
1770,0,9.83
1771,0,9.82
1772,0,9.81
1773,0,9.82
1774,0,9.82
1775,0,9.81
1776,0,9.81
1777,0,9.81
1778,0,9.83
1779,0,9.82
1780,0,9.82
1781,0,9.81
1782,0,9.83
1783,0,9.8
1784,0,9.83
1785,0,9.8
1786,0,9.82
1787,0,9.81
1788,0,9.82
1789,0,9.81
1790,0,9.82
1791,0,9.84
1792,0,9.81
1793,0,9.82
1794,0,9.83
1795,0,9.83
1796,0,9.82
1797,0,9.82
1798,0,9.82
1799,0,9.82
1800,0,9.82
1801,0,9.82
1802,0,9.81
1803,0,9.82
1804,0,9.82
1805,0,9.82
1806,0,9.83
1807,0,9.82
1808,0,9.81
1809,0,9.82
1810,0,9.81
1811,0,9.81
1812,0,9.81
1813,0,9.81
1814,0,9.8
1815,0,9.82
1816,0,9.82
1817,0,9.82
1818,0,9.81
1819,0,9.83
1820,0,9.82
1821,0,9.82
1822,0,9.8
1823,0,9.81
1824,0,9.82
1825,0,9.81
1826,0,9.81
1827,0,9.83
1828,0,9.82
1829,0,9.83
1830,0,9.8
1831,0,9.81
1832,0,9.82
1833,0,9.81
1834,0,9.81
1835,0,9.82
1836,0,9.81
1837,0,9.81
1838,0,9.83
1839,0,9.81
1840,0,9.83
1841,0,9.82
1842,0,9.8
1843,0,9.83
1844,0,9.82
1845,0,9.81
1846,0,9.81
1847,0,9.82
1848,30,9.81
1849,0,9.83
1850,0,9.81
1851,0,9.83
1852,0,9.84
1853,31,9.81
1854,0,9.8
1855,0,9.81
1856,0,9.82
1857,0,9.82
1858,0,9.81
1859,0,9.83
1860,0,9.83
1861,0,9.78
1862,0,9.66
1863,0,10.08
1864,0,9.87
1865,0,9.88
1866,0,9.78
1867,0,9.84
1868,0,9.84
1869,0,9.83
1870,0,9.83
1871,0,9.81
1872,0,9.83
1873,0,9.8
1874,0,9.8
1875,0,9.81
1876,0,9.82
1877,0,9.84
1878,0,9.82
1879,0,9.81
1880,0,9.82
1881,0,9.82
1882,0,9.81
1883,0,9.81
1884,0,9.8
1885,0,9.81
1886,0,9.82
1887,0,9.8
1888,0,9.83
1889,0,9.81
1890,0,9.82
1891,0,9.82
1892,0,9.82
1893,0,9.81
1894,0,9.82
1895,0,9.82
1896,0,9.84
1897,0,9.81
1898,0,9.83
1899,0,9.82
1900,0,9.83
1901,0,9.82
1902,0,9.81
1903,0,9.82
1904,0,9.81
1905,0,9.82
1906,0,9.81
1907,0,9.81
1908,0,9.8
1909,0,9.81
1910,0,9.82
1911,0,9.82
1912,0,9.81
1913,0,9.82
1914,0,9.84
1915,0,9.8
1916,0,9.82
1917,0,9.82
1918,0,9.84
1919,0,9.81
1920,0,9.81
1921,0,9.84
1922,0,9.81
1923,0,9.81
1924,0,9.83
1925,0,9.81
1926,0,9.81
1927,0,9.82
1928,0,9.81
1929,0,9.81
1930,0,9.82
1931,0,9.8
1932,0,9.82
1933,0,9.83
1934,0,9.81
1935,0,9.81
1936,0,9.83
1937,0,9.81
1938,0,9.8
1939,0,9.8
1940,0,9.81
1941,0,9.82
1942,7,9.82
1943,0,9.83
1943,0,9.82
1944,0,9.82
1945,0,9.8
1947,0,9.81
1948,0,9.82
1949,0,9.82
1950,0,9.81
1951,0,9.83
1952,0,9.82
1953,0,9.81
1954,0,9.82
1955,0,9.82
1956,0,9.81
1957,0,9.84
1958,0,9.82
1959,0,9.81
1960,0,9.83
1961,0,9.81
1962,0,9.81
1963,0,9.81
1964,0,9.82
1965,0,9.81
1966,0,9.82
1967,0,9.82
1968,0,9.82
1969,0,9.82
1970,0,9.82
1971,0,9.82
1972,0,9.81
1973,0,9.81
1974,0,9.83
1975,0,9.83
1976,0,9.82
1977,0,9.8
1978,0,9.84
1979,0,9.82
1980,0,9.82
1981,0,9.83
1982,0,9.82
1983,0,9.81
1984,0,9.81
1985,0,9.82
1986,0,9.82
1987,0,9.84
1988,0,9.82
1989,0,9.81
1990,0,9.82
1991,0,9.81
1992,0,9.82
1993,0,9.8
1994,0,9.81
1995,0,9.82
1996,0,9.83
1997,0,9.79
1998,0,9.82
1999,0,9.8
2000,0,9.82
2000,0,9.81
2000,0,9.82
2000,0,9.82
2000,0,9.81
2001,0,9.81
2000,0,9.8
2004,0,9.81
2005,0,9.83
2006,0,9.81
2007,0,9.8
2008,0,9.81
2009,0,9.81
2011,0,9.83
2014,0,9.78
2015,0,9.81
2016,0,9.82
2017,0,9.83
2018,0,9.82
2019,0,9.81
2020,0,9.82
2021,0,9.81
2022,0,9.81
2023,0,9.82
2024,0,9.81
2025,0,9.82
2026,0,9.81
2027,0,9.8
2028,0,9.81
2029,0,9.83
2030,0,9.8
2031,0,9.8
2032,0,9.83
2033,18,9.79
2034,0,9.82
2035,0,9.81
2036,0,9.81
2037,0,9.81
2038,0,9.82
2039,0,9.81
2040,0,9.81
2041,0,9.8
2042,0,9.82
2043,0,9.8
2044,0,9.81
2045,0,9.81
2046,0,9.81
2046,0,9.82
2047,0,9.82
2049,0,9.83
2050,0,9.8
2051,0,9.81
2052,0,9.83
2053,0,9.82
2054,0,9.8
2055,0,9.83
2056,0,9.8
2057,0,9.83
2058,0,9.81
2059,0,9.82
2060,0,9.82
2061,0,9.83
2062,0,9.8
2063,0,9.81
2064,0,9.81
2065,30,9.83
2066,0,9.83
2067,0,9.82
2068,0,9.81
2069,0,9.82
2070,0,9.82
2071,0,9.81
2072,0,9.81
2073,0,9.82
2074,0,9.83
2075,0,9.82
2076,0,9.81
2077,0,9.84
2078,0,9.83
2079,0,9.81
2080,0,9.81
2081,0,9.82
2082,0,9.82
2083,0,9.81
2084,0,9.82
2085,0,9.82
2086,0,9.8
2087,0,9.8
2088,0,9.82
2089,0,9.82
2090,0,9.82
2091,0,9.8
2092,0,9.82
2093,0,9.82
2094,0,9.81
2095,0,9.82
2096,0,9.82
2097,0,9.82
2098,0,9.81
2099,0,9.83
2100,0,9.81
2101,0,9.82
2102,0,9.82
2103,0,9.83
2104,0,9.82
2105,0,9.81
2106,0,9.8
2107,0,9.82
2108,0,9.81
2109,0,9.81
2110,0,9.8
2111,0,9.82
2112,0,9.84
2113,0,9.83
2114,0,9.8
2115,0,9.82
2116,0,9.82
2117,0,9.82
2118,0,9.81
2119,0,9.82
2120,0,9.81
2121,0,9.82
2122,0,9.82
2123,0,9.83
2124,0,9.82
2125,0,9.82
2126,0,9.82
2127,0,9.82
2128,0,9.81
2129,0,9.81
2130,0,9.82
2131,0,9.8
2132,0,9.82
2133,0,9.81
2134,0,9.81
2135,0,9.82
2136,0,9.82
2137,0,9.82
2138,16,9.83
2139,0,9.83
2140,0,9.8
2141,0,9.81
2142,0,9.79
2143,0,9.8
2144,0,9.81
2145,0,9.81
2146,0,9.81
2147,0,9.82
2148,14,9.81
2149,0,9.82
2150,0,9.81
2151,0,9.81
2152,0,9.82
2153,0,9.82
2154,0,9.82
2155,0,9.81
2156,0,9.82
2157,0,9.81
2158,0,9.83
2159,0,9.8
2160,0,9.81
2161,0,9.82
2162,0,9.83
2163,0,9.82
2164,0,9.82
2165,0,9.81
2166,0,9.84
2167,0,9.82
2168,0,9.82
2169,0,9.83
2170,0,9.8
2171,0,9.81
2172,2,9.82
2173,0,9.82
2174,0,9.8
2175,0,9.8
2176,0,9.82
2177,0,9.81
2178,0,9.82
2179,0,9.81
2180,0,9.83
2181,0,9.82
2182,0,9.8
2183,0,9.82
2184,0,9.81
2185,0,9.82
2186,0,9.82
2187,0,9.81
2188,0,9.81
2189,0,9.82
2190,0,9.82
2191,0,9.81
2192,0,9.81
2193,0,9.81
2194,0,9.81
2195,0,9.82
2196,0,9.81
2197,30,9.82
2198,0,9.82
2199,0,9.81
2200,0,9.83
2201,0,9.81
2202,0,9.82
2203,0,9.82
2204,0,9.82
2205,0,9.82
2206,0,9.8
2207,0,9.82
2208,0,9.83
2209,0,9.82
2210,0,9.83
2211,0,9.82
2212,0,9.82
2213,0,9.81
2214,0,9.82
2215,0,9.81
2216,0,9.82
2217,0,9.81
2218,0,9.82
2219,0,9.83
2220,0,9.81
2221,0,9.81
2222,0,9.82
2223,0,9.8
2223,0,9.8
2225,0,9.83
2226,0,9.81
2227,0,9.82
2228,0,9.81
2229,0,9.82
2230,0,9.81
2231,0,9.83
2232,0,9.82
2233,0,9.8
2234,0,9.8
2235,0,9.84
2236,0,9.78
2237,0,9.82
2238,0,9.82
2239,0,9.83
2240,0,9.81
2241,0,9.82
2242,0,9.82
2243,0,9.82
2244,0,9.82
2245,0,9.81
2246,0,9.82
2247,0,9.8
2248,0,9.81
2249,1,9.83
2250,0,9.81
2251,0,9.82
2252,0,9.81
2253,0,9.83
2254,0,9.8
2255,0,9.81
2256,0,9.8
2257,0,9.8
2258,0,9.83
2259,0,9.86
2260,0,9.79
2261,0,9.78
2262,0,9.83
2263,0,9.82
2264,0,9.86
2265,0,9.82
2266,0,9.79
2267,0,9.81
2268,0,9.85
2269,0,9.84
2270,0,9.83
2271,0,9.8
2272,0,9.82
2273,0,9.83
2274,0,9.81
2275,0,9.8
2276,0,9.8
2277,0,9.82
2278,0,9.81
2279,0,9.8
2280,0,9.81
2281,0,9.82
2282,0,9.81
2283,0,9.81
2284,0,9.8
2285,0,9.79
2286,0,9.82
2287,0,9.81
2288,0,9.81
2289,0,9.82
2290,0,9.81
2291,0,9.81
2292,0,9.83
2293,0,9.81
2294,0,9.82
2295,0,9.81
2296,0,9.81
2297,0,9.82
2298,0,9.83
2299,0,9.81
2300,0,9.8
2301,0,9.81
2302,0,9.83
2303,0,9.81
2304,0,9.83
2305,0,9.82
2306,0,9.79
2307,0,9.82
2308,0,9.82
2309,0,9.8
2310,0,9.79
2311,0,9.82
2312,0,9.82
2313,0,9.82
2314,0,9.81
2315,0,9.81
2316,0,9.83
2316,0,9.8
2318,0,9.82
2319,0,9.82
2320,0,9.81
2321,0,9.83
2321,0,9.81
2323,0,9.8
2324,0,9.81
2325,0,9.82
2326,0,9.82
2327,0,9.81
2328,0,9.81
2329,0,9.82
2330,0,9.82
2331,0,9.83
2332,0,9.82
2333,0,9.8
2334,0,9.83
2335,0,9.82
2336,0,9.81
2337,0,9.81
2338,0,9.81
2339,0,9.83
2340,0,9.81
2341,0,9.81
2342,0,9.79
